 # Radial wave functions calculated by RADIAL.
 # **** Schrodinger Eq. Numerical potential.
 #      Input potential file: potential_1T2y.dat  
 #      Free state: E= 4.409917E-01, L=   2  (EPS= 1.0E-15)
 #        Inner phase shift=-1.492139745096210E-13
 #      Coulomb phase shift=-1.012149375246654E+00  (ETA=-1.064804E+00)
 #      Matching radius: RAD(   11)= 1.000000000000000E-01
 #       R              P(R)            Q(R)
   0.00000000E+00  0.00000000E+00  0.00000000E+00
   1.00000000E-02  2.35744882E-07  7.06517944E-05
   2.00000000E-02  1.87947015E-06  2.81266688E-04
   3.00000000E-02  6.32187110E-06  6.30074948E-04
   4.00000000E-02  1.49348042E-05  1.11505637E-03
   5.00000000E-02  2.90707048E-05  1.73434977E-03
   6.00000000E-02  5.00631343E-05  2.48604348E-03
   7.00000000E-02  7.92265315E-05  3.36822423E-03
   8.00000000E-02  1.17856190E-04  4.37897617E-03
   9.00000000E-02  1.67228231E-04  5.51638083E-03
   1.00000000E-01  2.28599579E-04  6.77851721E-03
   1.10000000E-01  3.03207937E-04  8.16346207E-03
   1.20000000E-01  3.92271764E-04  9.66929005E-03
   1.30000000E-01  4.96990258E-04  1.12940740E-02
   1.40000000E-01  6.18543334E-04  1.30358849E-02
   1.50000000E-01  7.58091613E-04  1.48927928E-02
   1.60000000E-01  9.16776407E-04  1.68628660E-02
   1.70000000E-01  1.09571971E-03  1.89441722E-02
   1.80000000E-01  1.29602418E-03  2.11347782E-02
   1.90000000E-01  1.51877316E-03  2.34327503E-02
   2.00000000E-01  1.76503063E-03  2.58361545E-02
   2.10000000E-01  2.03584124E-03  2.83430568E-02
   2.20000000E-01  2.33223031E-03  3.09515231E-02
   2.30000000E-01  2.65520381E-03  3.36596199E-02
   2.40000000E-01  3.00574837E-03  3.64654140E-02
   2.50000000E-01  3.38483131E-03  3.93669733E-02
   2.60000000E-01  3.79340061E-03  4.23623663E-02
   2.70000000E-01  4.23238498E-03  4.54496629E-02
   2.80000000E-01  4.70269379E-03  4.86269346E-02
   2.90000000E-01  5.20521716E-03  5.18922542E-02
   3.00000000E-01  5.74082595E-03  5.52436965E-02
   3.10000000E-01  6.31037176E-03  5.86793384E-02
   3.20000000E-01  6.91468698E-03  6.21972589E-02
   3.30000000E-01  7.55458480E-03  6.57955395E-02
   3.40000000E-01  8.23085925E-03  6.94722645E-02
   3.50000000E-01  8.94428519E-03  7.32255209E-02
   3.60000000E-01  9.69561840E-03  7.70533989E-02
   3.70000000E-01  1.04855956E-02  8.09539920E-02
   3.80000000E-01  1.13149343E-02  8.49253970E-02
   3.90000000E-01  1.21843332E-02  8.89657145E-02
   4.00000000E-01  1.30944720E-02  9.30730492E-02
   4.10000000E-01  1.40460113E-02  9.72455094E-02
   4.20000000E-01  1.50395929E-02  1.01481208E-01
   4.30000000E-01  1.60758400E-02  1.05778263E-01
   4.40000000E-01  1.71553565E-02  1.10134795E-01
   4.50000000E-01  1.82787279E-02  1.14548932E-01
   4.60000000E-01  1.94465209E-02  1.19018805E-01
   4.70000000E-01  2.06592835E-02  1.23542552E-01
   4.80000000E-01  2.19175453E-02  1.28118316E-01
   4.90000000E-01  2.32218171E-02  1.32744244E-01
   5.00000000E-01  2.45725913E-02  1.37418491E-01
   5.10000000E-01  2.59703418E-02  1.42139216E-01
   5.20000000E-01  2.74155244E-02  1.46904586E-01
   5.30000000E-01  2.89085763E-02  1.51712773E-01
   5.40000000E-01  3.04499165E-02  1.56561957E-01
   5.50000000E-01  3.20399460E-02  1.61450324E-01
   5.60000000E-01  3.36790476E-02  1.66376066E-01
   5.70000000E-01  3.53675859E-02  1.71337382E-01
   5.80000000E-01  3.71059078E-02  1.76332481E-01
   5.90000000E-01  3.88943422E-02  1.81359577E-01
   6.00000000E-01  4.07332001E-02  1.86416891E-01
   6.10000000E-01  4.26227748E-02  1.91502655E-01
   6.20000000E-01  4.45633421E-02  1.96615105E-01
   6.30000000E-01  4.65551600E-02  2.01752488E-01
   6.40000000E-01  4.85984692E-02  2.06913058E-01
   6.50000000E-01  5.06934927E-02  2.12095078E-01
   6.60000000E-01  5.28404365E-02  2.17296819E-01
   6.70000000E-01  5.50394891E-02  2.22516561E-01
   6.80000000E-01  5.72908220E-02  2.27752595E-01
   6.90000000E-01  5.95945896E-02  2.33003217E-01
   7.00000000E-01  6.19509293E-02  2.38266735E-01
   7.10000000E-01  6.43599617E-02  2.43541466E-01
   7.20000000E-01  6.68217904E-02  2.48825737E-01
   7.30000000E-01  6.93365027E-02  2.54117885E-01
   7.40000000E-01  7.19041689E-02  2.59416254E-01
   7.50000000E-01  7.45248430E-02  2.64719201E-01
   7.60000000E-01  7.71985627E-02  2.70025092E-01
   7.70000000E-01  7.99253492E-02  2.75332305E-01
   7.80000000E-01  8.27052078E-02  2.80639225E-01
   7.90000000E-01  8.55381274E-02  2.85944251E-01
   8.00000000E-01  8.84240812E-02  2.91245792E-01
   8.10000000E-01  9.13630264E-02  2.96542266E-01
   8.20000000E-01  9.43549044E-02  3.01832104E-01
   8.30000000E-01  9.73996411E-02  3.07113748E-01
   8.40000000E-01  1.00497147E-01  3.12385650E-01
   8.50000000E-01  1.03647317E-01  3.17646275E-01
   8.60000000E-01  1.06850030E-01  3.22894098E-01
   8.70000000E-01  1.10105151E-01  3.28127607E-01
   8.80000000E-01  1.13412529E-01  3.33345302E-01
   8.90000000E-01  1.16771999E-01  3.38545694E-01
   9.00000000E-01  1.20183380E-01  3.43727307E-01
   9.10000000E-01  1.23646478E-01  3.48888675E-01
   9.20000000E-01  1.27161082E-01  3.54028347E-01
   9.30000000E-01  1.30726968E-01  3.59144884E-01
   9.40000000E-01  1.34343897E-01  3.64236858E-01
   9.50000000E-01  1.38011618E-01  3.69302855E-01
   9.60000000E-01  1.41729863E-01  3.74341474E-01
   9.70000000E-01  1.45498352E-01  3.79351325E-01
   9.80000000E-01  1.49316789E-01  3.84331034E-01
   9.90000000E-01  1.53184867E-01  3.89279237E-01
   1.00000000E+00  1.57102264E-01  3.94194585E-01
   1.01000000E+00  1.61068645E-01  3.99075743E-01
   1.02000000E+00  1.65083661E-01  4.03921388E-01
   1.03000000E+00  1.69146950E-01  4.08730210E-01
   1.04000000E+00  1.73258138E-01  4.13500915E-01
   1.05000000E+00  1.77416837E-01  4.18232221E-01
   1.06000000E+00  1.81622647E-01  4.22922860E-01
   1.07000000E+00  1.85875155E-01  4.27571579E-01
   1.08000000E+00  1.90173935E-01  4.32177137E-01
   1.09000000E+00  1.94518549E-01  4.36738308E-01
   1.10000000E+00  1.98908549E-01  4.41253882E-01
   1.11000000E+00  2.03343471E-01  4.45722660E-01
   1.12000000E+00  2.07822842E-01  4.50143461E-01
   1.13000000E+00  2.12346176E-01  4.54515114E-01
   1.14000000E+00  2.16912977E-01  4.58836468E-01
   1.15000000E+00  2.21522734E-01  4.63106382E-01
   1.16000000E+00  2.26174929E-01  4.67323731E-01
   1.17000000E+00  2.30869030E-01  4.71487406E-01
   1.18000000E+00  2.35604495E-01  4.75596312E-01
   1.19000000E+00  2.40380770E-01  4.79649368E-01
   1.20000000E+00  2.45197292E-01  4.83645509E-01
   1.21000000E+00  2.50053487E-01  4.87583686E-01
   1.22000000E+00  2.54948769E-01  4.91462863E-01
   1.23000000E+00  2.59882544E-01  4.95282020E-01
   1.24000000E+00  2.64854206E-01  4.99040153E-01
   1.25000000E+00  2.69863141E-01  5.02736272E-01
   1.26000000E+00  2.74908722E-01  5.06369403E-01
   1.27000000E+00  2.79990316E-01  5.09938588E-01
   1.28000000E+00  2.85107277E-01  5.13442884E-01
   1.29000000E+00  2.90258954E-01  5.16881362E-01
   1.30000000E+00  2.95444682E-01  5.20253111E-01
   1.31000000E+00  3.00663791E-01  5.23557235E-01
   1.32000000E+00  3.05915599E-01  5.26792852E-01
   1.33000000E+00  3.11199416E-01  5.29959097E-01
   1.34000000E+00  3.16514546E-01  5.33055122E-01
   1.35000000E+00  3.21860282E-01  5.36080091E-01
   1.36000000E+00  3.27235909E-01  5.39033189E-01
   1.37000000E+00  3.32640704E-01  5.41913612E-01
   1.38000000E+00  3.38073936E-01  5.44720575E-01
   1.39000000E+00  3.43534868E-01  5.47453307E-01
   1.40000000E+00  3.49022752E-01  5.50111054E-01
   1.41000000E+00  3.54536836E-01  5.52693079E-01
   1.42000000E+00  3.60076359E-01  5.55198659E-01
   1.43000000E+00  3.65640552E-01  5.57627088E-01
   1.44000000E+00  3.71228641E-01  5.59977676E-01
   1.45000000E+00  3.76839844E-01  5.62249748E-01
   1.46000000E+00  3.82473372E-01  5.64442648E-01
   1.47000000E+00  3.88128431E-01  5.66555733E-01
   1.48000000E+00  3.93804219E-01  5.68588377E-01
   1.49000000E+00  3.99499928E-01  5.70539972E-01
   1.50000000E+00  4.05214746E-01  5.72409924E-01
   1.51000000E+00  4.10947853E-01  5.74197656E-01
   1.52000000E+00  4.16698423E-01  5.75902606E-01
   1.53000000E+00  4.22465627E-01  5.77524230E-01
   1.54000000E+00  4.28248628E-01  5.79062001E-01
   1.55000000E+00  4.34046586E-01  5.80515404E-01
   1.56000000E+00  4.39858654E-01  5.81883944E-01
   1.57000000E+00  4.45683980E-01  5.83167142E-01
   1.58000000E+00  4.51521710E-01  5.84364532E-01
   1.59000000E+00  4.57370983E-01  5.85475669E-01
   1.60000000E+00  4.63230935E-01  5.86500120E-01
   1.61000000E+00  4.69100696E-01  5.87437470E-01
   1.62000000E+00  4.74979393E-01  5.88287320E-01
   1.63000000E+00  4.80866149E-01  5.89049288E-01
   1.64000000E+00  4.86760084E-01  5.89723006E-01
   1.65000000E+00  4.92660314E-01  5.90308124E-01
   1.66000000E+00  4.98565950E-01  5.90804308E-01
   1.67000000E+00  5.04476102E-01  5.91211238E-01
   1.68000000E+00  5.10389876E-01  5.91528614E-01
   1.69000000E+00  5.16306375E-01  5.91756148E-01
   1.70000000E+00  5.22224699E-01  5.91893570E-01
   1.71000000E+00  5.28143945E-01  5.91940626E-01
   1.72000000E+00  5.34063209E-01  5.91897078E-01
   1.73000000E+00  5.39981584E-01  5.91762703E-01
   1.74000000E+00  5.45898160E-01  5.91537295E-01
   1.75000000E+00  5.51812026E-01  5.91220664E-01
   1.76000000E+00  5.57722269E-01  5.90812635E-01
   1.77000000E+00  5.63627973E-01  5.90313048E-01
   1.78000000E+00  5.69528224E-01  5.89721762E-01
   1.79000000E+00  5.75422103E-01  5.89038648E-01
   1.80000000E+00  5.81308691E-01  5.88263595E-01
   1.81000000E+00  5.87187068E-01  5.87396507E-01
   1.82000000E+00  5.93056314E-01  5.86437303E-01
   1.83000000E+00  5.98915507E-01  5.85385919E-01
   1.84000000E+00  6.04763725E-01  5.84242306E-01
   1.85000000E+00  6.10600045E-01  5.83006429E-01
   1.86000000E+00  6.16423546E-01  5.81678270E-01
   1.87000000E+00  6.22233303E-01  5.80257827E-01
   1.88000000E+00  6.28028394E-01  5.78745110E-01
   1.89000000E+00  6.33807898E-01  5.77140149E-01
   1.90000000E+00  6.39570890E-01  5.75442985E-01
   1.91000000E+00  6.45316450E-01  5.73653676E-01
   1.92000000E+00  6.51043657E-01  5.71772296E-01
   1.93000000E+00  6.56751589E-01  5.69798932E-01
   1.94000000E+00  6.62439329E-01  5.67733687E-01
   1.95000000E+00  6.68105957E-01  5.65576679E-01
   1.96000000E+00  6.73750557E-01  5.63328041E-01
   1.97000000E+00  6.79372213E-01  5.60987919E-01
   1.98000000E+00  6.84970011E-01  5.58556476E-01
   1.99000000E+00  6.90543039E-01  5.56033889E-01
   2.00000000E+00  6.96090386E-01  5.53420348E-01
   2.01000000E+00  7.01611143E-01  5.50716060E-01
   2.02000000E+00  7.07104405E-01  5.47921245E-01
   2.03000000E+00  7.12569267E-01  5.45036136E-01
   2.04000000E+00  7.18004828E-01  5.42060983E-01
   2.05000000E+00  7.23410188E-01  5.38996048E-01
   2.06000000E+00  7.28784450E-01  5.35841608E-01
   2.07000000E+00  7.34126722E-01  5.32597954E-01
   2.08000000E+00  7.39436113E-01  5.29265391E-01
   2.09000000E+00  7.44711735E-01  5.25844238E-01
   2.10000000E+00  7.49952704E-01  5.22334826E-01
   2.11000000E+00  7.55158138E-01  5.18737502E-01
   2.12000000E+00  7.60327162E-01  5.15052625E-01
   2.13000000E+00  7.65458900E-01  5.11280568E-01
   2.14000000E+00  7.70552484E-01  5.07421718E-01
   2.15000000E+00  7.75607047E-01  5.03476475E-01
   2.16000000E+00  7.80621727E-01  4.99445251E-01
   2.17000000E+00  7.85595667E-01  4.95328472E-01
   2.18000000E+00  7.90528013E-01  4.91126578E-01
   2.19000000E+00  7.95417916E-01  4.86840020E-01
   2.20000000E+00  8.00264532E-01  4.82469264E-01
   2.21000000E+00  8.05067022E-01  4.78014786E-01
   2.22000000E+00  8.09824551E-01  4.73477077E-01
   2.23000000E+00  8.14536288E-01  4.68856639E-01
   2.24000000E+00  8.19201409E-01  4.64153988E-01
   2.25000000E+00  8.23819095E-01  4.59369650E-01
   2.26000000E+00  8.28388532E-01  4.54504166E-01
   2.27000000E+00  8.32908910E-01  4.49558085E-01
   2.28000000E+00  8.37379427E-01  4.44531974E-01
   2.29000000E+00  8.41799285E-01  4.39426405E-01
   2.30000000E+00  8.46167692E-01  4.34241968E-01
   2.31000000E+00  8.50483863E-01  4.28979260E-01
   2.32000000E+00  8.54747018E-01  4.23638892E-01
   2.33000000E+00  8.58956384E-01  4.18221486E-01
   2.34000000E+00  8.63111193E-01  4.12727675E-01
   2.35000000E+00  8.67210685E-01  4.07158103E-01
   2.36000000E+00  8.71254105E-01  4.01513426E-01
   2.37000000E+00  8.75240706E-01  3.95794309E-01
   2.38000000E+00  8.79169745E-01  3.90001431E-01
   2.39000000E+00  8.83040491E-01  3.84135478E-01
   2.40000000E+00  8.86852214E-01  3.78197150E-01
   2.41000000E+00  8.90604195E-01  3.72187155E-01
   2.42000000E+00  8.94295720E-01  3.66106213E-01
   2.43000000E+00  8.97926085E-01  3.59955053E-01
   2.44000000E+00  9.01494590E-01  3.53734415E-01
   2.45000000E+00  9.05000544E-01  3.47445049E-01
   2.46000000E+00  9.08443264E-01  3.41087714E-01
   2.47000000E+00  9.11822074E-01  3.34663180E-01
   2.48000000E+00  9.15136306E-01  3.28172225E-01
   2.49000000E+00  9.18385300E-01  3.21615638E-01
   2.50000000E+00  9.21568403E-01  3.14994216E-01
   2.51000000E+00  9.24684971E-01  3.08308766E-01
   2.52000000E+00  9.27734368E-01  3.01560105E-01
   2.53000000E+00  9.30715965E-01  2.94749058E-01
   2.54000000E+00  9.33629144E-01  2.87876458E-01
   2.55000000E+00  9.36473292E-01  2.80943148E-01
   2.56000000E+00  9.39247807E-01  2.73949979E-01
   2.57000000E+00  9.41952095E-01  2.66897810E-01
   2.58000000E+00  9.44585569E-01  2.59787510E-01
   2.59000000E+00  9.47147654E-01  2.52619955E-01
   2.60000000E+00  9.49637781E-01  2.45396028E-01
   2.61000000E+00  9.52055390E-01  2.38116622E-01
   2.62000000E+00  9.54399931E-01  2.30782636E-01
   2.63000000E+00  9.56670864E-01  2.23394977E-01
   2.64000000E+00  9.58867655E-01  2.15954561E-01
   2.65000000E+00  9.60989782E-01  2.08462310E-01
   2.66000000E+00  9.63036731E-01  2.00919153E-01
   2.67000000E+00  9.65007999E-01  1.93326027E-01
   2.68000000E+00  9.66903088E-01  1.85683874E-01
   2.69000000E+00  9.68721516E-01  1.77993646E-01
   2.70000000E+00  9.70462804E-01  1.70256299E-01
   2.71000000E+00  9.72126488E-01  1.62472796E-01
   2.72000000E+00  9.73712110E-01  1.54644108E-01
   2.73000000E+00  9.75219223E-01  1.46771209E-01
   2.74000000E+00  9.76647390E-01  1.38855083E-01
   2.75000000E+00  9.77996184E-01  1.30896718E-01
   2.76000000E+00  9.79265187E-01  1.22897106E-01
   2.77000000E+00  9.80453991E-01  1.14857247E-01
   2.78000000E+00  9.81562201E-01  1.06778148E-01
   2.79000000E+00  9.82589427E-01  9.86608168E-02
   2.80000000E+00  9.83535293E-01  9.05062705E-02
   2.81000000E+00  9.84399432E-01  8.23155293E-02
   2.82000000E+00  9.85181486E-01  7.40896189E-02
   2.83000000E+00  9.85881110E-01  6.58295698E-02
   2.84000000E+00  9.86497967E-01  5.75364170E-02
   2.85000000E+00  9.87031732E-01  4.92112000E-02
   2.86000000E+00  9.87482088E-01  4.08549629E-02
   2.87000000E+00  9.87848731E-01  3.24687538E-02
   2.88000000E+00  9.88131367E-01  2.40536250E-02
   2.89000000E+00  9.88329711E-01  1.56106326E-02
   2.90000000E+00  9.88443490E-01  7.14083649E-03
   2.91000000E+00  9.88472442E-01 -1.35469963E-03
   2.92000000E+00  9.88416314E-01 -9.87490873E-03
   2.93000000E+00  9.88274865E-01 -1.84187204E-02
   2.94000000E+00  9.88047864E-01 -2.69850610E-02
   2.95000000E+00  9.87735092E-01 -3.55728539E-02
   2.96000000E+00  9.87336339E-01 -4.41810194E-02
   2.97000000E+00  9.86851407E-01 -5.28084754E-02
   2.98000000E+00  9.86280109E-01 -6.14541368E-02
   2.99000000E+00  9.85622268E-01 -7.01169161E-02
   3.00000000E+00  9.84877717E-01 -7.87957238E-02
   3.01000000E+00  9.84046303E-01 -8.74894678E-02
   3.02000000E+00  9.83127882E-01 -9.61970542E-02
   3.03000000E+00  9.82122320E-01 -1.04917387E-01
   3.04000000E+00  9.81029495E-01 -1.13649369E-01
   3.05000000E+00  9.79849297E-01 -1.22391901E-01
   3.06000000E+00  9.78581626E-01 -1.31143882E-01
   3.07000000E+00  9.77226392E-01 -1.39904210E-01
   3.08000000E+00  9.75783517E-01 -1.48671783E-01
   3.09000000E+00  9.74252936E-01 -1.57445496E-01
   3.10000000E+00  9.72634591E-01 -1.66224243E-01
   3.11000000E+00  9.70928438E-01 -1.75006921E-01
   3.12000000E+00  9.69134443E-01 -1.83792422E-01
   3.13000000E+00  9.67252584E-01 -1.92579639E-01
   3.14000000E+00  9.65282848E-01 -2.01367465E-01
   3.15000000E+00  9.63225236E-01 -2.10154795E-01
   3.16000000E+00  9.61079758E-01 -2.18940519E-01
   3.17000000E+00  9.58846435E-01 -2.27723531E-01
   3.18000000E+00  9.56525300E-01 -2.36502726E-01
   3.19000000E+00  9.54116396E-01 -2.45276995E-01
   3.20000000E+00  9.51619780E-01 -2.54045233E-01
   3.21000000E+00  9.49035516E-01 -2.62806336E-01
   3.22000000E+00  9.46363681E-01 -2.71559200E-01
   3.23000000E+00  9.43604363E-01 -2.80302720E-01
   3.24000000E+00  9.40757661E-01 -2.89035795E-01
   3.25000000E+00  9.37823685E-01 -2.97757324E-01
   3.26000000E+00  9.34802557E-01 -3.06466207E-01
   3.27000000E+00  9.31694407E-01 -3.15161348E-01
   3.28000000E+00  9.28499379E-01 -3.23841649E-01
   3.29000000E+00  9.25217627E-01 -3.32506016E-01
   3.30000000E+00  9.21849316E-01 -3.41153356E-01
   3.31000000E+00  9.18394620E-01 -3.49782580E-01
   3.32000000E+00  9.14853728E-01 -3.58392600E-01
   3.33000000E+00  9.11226836E-01 -3.66982328E-01
   3.34000000E+00  9.07514153E-01 -3.75550684E-01
   3.35000000E+00  9.03715897E-01 -3.84096585E-01
   3.36000000E+00  8.99832299E-01 -3.92618953E-01
   3.37000000E+00  8.95863600E-01 -4.01116715E-01
   3.38000000E+00  8.91810051E-01 -4.09588798E-01
   3.39000000E+00  8.87671913E-01 -4.18034133E-01
   3.40000000E+00  8.83449461E-01 -4.26451655E-01
   3.41000000E+00  8.79142977E-01 -4.34840302E-01
   3.42000000E+00  8.74752755E-01 -4.43199016E-01
   3.43000000E+00  8.70279100E-01 -4.51526741E-01
   3.44000000E+00  8.65722327E-01 -4.59822428E-01
   3.45000000E+00  8.61082761E-01 -4.68085028E-01
   3.46000000E+00  8.56360740E-01 -4.76313499E-01
   3.47000000E+00  8.51556608E-01 -4.84506803E-01
   3.48000000E+00  8.46670724E-01 -4.92663905E-01
   3.49000000E+00  8.41703454E-01 -5.00783775E-01
   3.50000000E+00  8.36655176E-01 -5.08865387E-01
   3.51000000E+00  8.31526278E-01 -5.16907722E-01
   3.52000000E+00  8.26317156E-01 -5.24909764E-01
   3.53000000E+00  8.21028220E-01 -5.32870501E-01
   3.54000000E+00  8.15659887E-01 -5.40788928E-01
   3.55000000E+00  8.10212586E-01 -5.48664044E-01
   3.56000000E+00  8.04686754E-01 -5.56494854E-01
   3.57000000E+00  7.99082840E-01 -5.64280369E-01
   3.58000000E+00  7.93401301E-01 -5.72019603E-01
   3.59000000E+00  7.87642605E-01 -5.79711579E-01
   3.60000000E+00  7.81807230E-01 -5.87355323E-01
   3.61000000E+00  7.75895663E-01 -5.94949869E-01
   3.62000000E+00  7.69908400E-01 -6.02494255E-01
   3.63000000E+00  7.63845948E-01 -6.09987527E-01
   3.64000000E+00  7.57708823E-01 -6.17428736E-01
   3.65000000E+00  7.51497550E-01 -6.24816941E-01
   3.66000000E+00  7.45212664E-01 -6.32151205E-01
   3.67000000E+00  7.38854709E-01 -6.39430599E-01
   3.68000000E+00  7.32424238E-01 -6.46654200E-01
   3.69000000E+00  7.25921814E-01 -6.53821094E-01
   3.70000000E+00  7.19348008E-01 -6.60930371E-01
   3.71000000E+00  7.12703401E-01 -6.67981129E-01
   3.72000000E+00  7.05988584E-01 -6.74972474E-01
   3.73000000E+00  6.99204153E-01 -6.81903517E-01
   3.74000000E+00  6.92350717E-01 -6.88773380E-01
   3.75000000E+00  6.85428892E-01 -6.95581190E-01
   3.76000000E+00  6.78439303E-01 -7.02326080E-01
   3.77000000E+00  6.71382583E-01 -7.09007193E-01
   3.78000000E+00  6.64259375E-01 -7.15623680E-01
   3.79000000E+00  6.57070328E-01 -7.22174698E-01
   3.80000000E+00  6.49816102E-01 -7.28659414E-01
   3.81000000E+00  6.42497363E-01 -7.35077000E-01
   3.82000000E+00  6.35114788E-01 -7.41426640E-01
   3.83000000E+00  6.27669060E-01 -7.47707522E-01
   3.84000000E+00  6.20160870E-01 -7.53918846E-01
   3.85000000E+00  6.12590917E-01 -7.60059818E-01
   3.86000000E+00  6.04959910E-01 -7.66129653E-01
   3.87000000E+00  5.97268564E-01 -7.72127576E-01
   3.88000000E+00  5.89517601E-01 -7.78052818E-01
   3.89000000E+00  5.81707752E-01 -7.83904622E-01
   3.90000000E+00  5.73839756E-01 -7.89682236E-01
