 # Radial wave functions calculated by RADIAL.
 # **** Schrodinger Eq. Numerical potential.
 #      Input potential file: potential_1T2y.dat  
 #      Free state: E= 1.359724E+00, L=   5  (EPS= 1.0E-15)
 #        Inner phase shift= 4.257043540465766E-02
 #      Coulomb phase shift=-1.035838271573027E+00  (ETA=-6.064200E-01)
 #      Matching radius: RAD(  896)= 8.949999999999999E+00
 #       R              P(R)            Q(R)
   0.00000000E+00  0.00000000E+00  0.00000000E+00
   1.00000000E-02  8.89093274E-15  5.32583658E-12
   2.00000000E-02  5.63517160E-13  1.68512836E-10
   3.00000000E-02  6.35792506E-12  1.26558374E-09
   4.00000000E-02  3.53905970E-11  5.27582350E-09
   5.00000000E-02  1.33772068E-10  1.59311471E-08
   6.00000000E-02  3.95863541E-10  3.92335375E-08
   7.00000000E-02  9.89444417E-10  8.39439002E-08
   8.00000000E-02  2.18563730E-09  1.62045127E-07
   9.00000000E-02  4.39334447E-09  2.89181668E-07
   1.00000000E-01  8.19797049E-09  4.85077475E-07
   1.10000000E-01  1.44042226E-08  7.73933818E-07
   1.20000000E-01  2.40827937E-08  1.18480819E-06
   1.30000000E-01  3.86207439E-08  1.75197525E-06
   1.40000000E-01  5.97754053E-08  2.51527064E-06
   1.50000000E-01  8.97316416E-08  3.52041822E-06
   1.60000000E-01  1.31162300E-07  4.81934139E-06
   1.70000000E-01  1.87291698E-07  6.47045892E-06
   1.80000000E-01  2.61961993E-07  8.53896563E-06
   1.90000000E-01  3.59702287E-07  1.10970985E-05
   2.00000000E-01  4.85800315E-07  1.42243883E-05
   2.10000000E-01  6.46376589E-07  1.80078975E-05
   2.20000000E-01  8.48460839E-07  2.25424445E-05
   2.30000000E-01  1.10007065E-06  2.79308146E-05
   2.40000000E-01  1.41029212E-06  3.42839584E-05
   2.50000000E-01  1.78936245E-06  4.17211772E-05
   2.60000000E-01  2.24875437E-06  5.03702974E-05
   2.70000000E-01  2.80126213E-06  6.03678317E-05
   2.80000000E-01  3.46108922E-06  7.18591305E-05
   2.90000000E-01  4.24393737E-06  8.49985217E-05
   3.00000000E-01  5.16709705E-06  9.99494398E-05
   3.10000000E-01  6.24953909E-06  1.16884545E-04
   3.20000000E-01  7.51200751E-06  1.35985834E-04
   3.30000000E-01  8.97711341E-06  1.57444736E-04
   3.40000000E-01  1.06694297E-05  1.81462211E-04
   3.50000000E-01  1.26155870E-05  2.08248822E-04
   3.60000000E-01  1.48443697E-05  2.38024818E-04
   3.70000000E-01  1.73868135E-05  2.71020192E-04
   3.80000000E-01  2.02763031E-05  3.07474744E-04
   3.90000000E-01  2.35486701E-05  3.47638126E-04
   4.00000000E-01  2.72422924E-05  3.91769889E-04
   4.10000000E-01  3.13981930E-05  4.40139513E-04
   4.20000000E-01  3.60601392E-05  4.93026438E-04
   4.30000000E-01  4.12747430E-05  5.50720085E-04
   4.40000000E-01  4.70915603E-05  6.13519868E-04
   4.50000000E-01  5.35631911E-05  6.81735202E-04
   4.60000000E-01  6.07453798E-05  7.55685505E-04
   4.70000000E-01  6.86971147E-05  8.35700191E-04
   4.80000000E-01  7.74807284E-05  9.22118660E-04
   4.90000000E-01  8.71619973E-05  1.01529028E-03
   5.00000000E-01  9.78102410E-05  1.11557434E-03
   5.10000000E-01  1.09498422E-04  1.22334008E-03
   5.20000000E-01  1.22303244E-04  1.33896658E-03
   5.30000000E-01  1.36305251E-04  1.46284274E-03
   5.40000000E-01  1.51588926E-04  1.59536727E-03
   5.50000000E-01  1.68242785E-04  1.73694858E-03
   5.60000000E-01  1.86359479E-04  1.88800474E-03
   5.70000000E-01  2.06035887E-04  2.04896341E-03
   5.80000000E-01  2.27373212E-04  2.22026176E-03
   5.90000000E-01  2.50477076E-04  2.40234640E-03
   6.00000000E-01  2.75457613E-04  2.59567327E-03
   6.10000000E-01  3.02429565E-04  2.80070754E-03
   6.20000000E-01  3.31512369E-04  3.01792354E-03
   6.30000000E-01  3.62830251E-04  3.24780462E-03
   6.40000000E-01  3.96512318E-04  3.49084304E-03
   6.50000000E-01  4.32692639E-04  3.74753984E-03
   6.60000000E-01  4.71510341E-04  4.01840475E-03
   6.70000000E-01  5.13109688E-04  4.30395596E-03
   6.80000000E-01  5.57640169E-04  4.60472007E-03
   6.90000000E-01  6.05256580E-04  4.92123188E-03
   7.00000000E-01  6.56119107E-04  5.25403423E-03
   7.10000000E-01  7.10393402E-04  5.60367785E-03
   7.20000000E-01  7.68250663E-04  5.97072119E-03
   7.30000000E-01  8.29867710E-04  6.35573018E-03
   7.40000000E-01  8.95427062E-04  6.75927809E-03
   7.50000000E-01  9.65117002E-04  7.18194530E-03
   7.60000000E-01  1.03913166E-03  7.62431913E-03
   7.70000000E-01  1.11767105E-03  8.08699352E-03
   7.80000000E-01  1.20094120E-03  8.57056891E-03
   7.90000000E-01  1.28915412E-03  9.07565199E-03
   8.00000000E-01  1.38252797E-03  9.60285533E-03
   8.10000000E-01  1.48128702E-03  1.01527973E-02
   8.20000000E-01  1.58566179E-03  1.07261017E-02
   8.30000000E-01  1.69588903E-03  1.13233974E-02
   8.40000000E-01  1.81221182E-03  1.19453185E-02
   8.50000000E-01  1.93487961E-03  1.25925032E-02
   8.60000000E-01  2.06414824E-03  1.32655945E-02
   8.70000000E-01  2.20028001E-03  1.39652390E-02
   8.80000000E-01  2.34354370E-03  1.46920871E-02
   8.90000000E-01  2.49421461E-03  1.54467928E-02
   9.00000000E-01  2.65257460E-03  1.62300126E-02
   9.10000000E-01  2.81891211E-03  1.70424061E-02
   9.20000000E-01  2.99352217E-03  1.78846349E-02
   9.30000000E-01  3.17670647E-03  1.87573626E-02
   9.40000000E-01  3.36877331E-03  1.96612545E-02
   9.50000000E-01  3.57003766E-03  2.05969768E-02
   9.60000000E-01  3.78082117E-03  2.15651966E-02
   9.70000000E-01  4.00145214E-03  2.25665812E-02
   9.80000000E-01  4.23226557E-03  2.36017981E-02
   9.90000000E-01  4.47360310E-03  2.46715141E-02
   1.00000000E+00  4.72581306E-03  2.57763950E-02
   1.01000000E+00  4.98925043E-03  2.69171053E-02
   1.02000000E+00  5.26427681E-03  2.80943079E-02
   1.03000000E+00  5.55126043E-03  2.93086629E-02
   1.04000000E+00  5.85057610E-03  3.05608282E-02
   1.05000000E+00  6.16260521E-03  3.18514576E-02
   1.06000000E+00  6.48773564E-03  3.31812019E-02
   1.07000000E+00  6.82636178E-03  3.45507074E-02
   1.08000000E+00  7.17888446E-03  3.59606155E-02
   1.09000000E+00  7.54571089E-03  3.74115623E-02
   1.10000000E+00  7.92725461E-03  3.89041783E-02
   1.11000000E+00  8.32393543E-03  4.04390872E-02
   1.12000000E+00  8.73617939E-03  4.20169063E-02
   1.13000000E+00  9.16441863E-03  4.36382449E-02
   1.14000000E+00  9.60909136E-03  4.53037046E-02
   1.15000000E+00  1.00706418E-02  4.70138782E-02
   1.16000000E+00  1.05495199E-02  4.87693493E-02
   1.17000000E+00  1.10461817E-02  5.05706920E-02
   1.18000000E+00  1.15610885E-02  5.24184695E-02
   1.19000000E+00  1.20947077E-02  5.43132344E-02
   1.20000000E+00  1.26475117E-02  5.62555275E-02
   1.21000000E+00  1.32199784E-02  5.82458775E-02
   1.22000000E+00  1.38125911E-02  6.02848002E-02
   1.23000000E+00  1.44258380E-02  6.23727978E-02
   1.24000000E+00  1.50602123E-02  6.45103587E-02
   1.25000000E+00  1.57162120E-02  6.66979562E-02
   1.26000000E+00  1.63943397E-02  6.89360484E-02
   1.27000000E+00  1.70951027E-02  7.12250771E-02
   1.28000000E+00  1.78190125E-02  7.35654679E-02
   1.29000000E+00  1.85665847E-02  7.59576285E-02
   1.30000000E+00  1.93383389E-02  7.84019488E-02
   1.31000000E+00  2.01347987E-02  8.08987999E-02
   1.32000000E+00  2.09564912E-02  8.34485336E-02
   1.33000000E+00  2.18039468E-02  8.60514818E-02
   1.34000000E+00  2.26776992E-02  8.87079552E-02
   1.35000000E+00  2.35782853E-02  9.14182435E-02
   1.36000000E+00  2.45062444E-02  9.41826142E-02
   1.37000000E+00  2.54621187E-02  9.70013122E-02
   1.38000000E+00  2.64464525E-02  9.98745586E-02
   1.39000000E+00  2.74597923E-02  1.02802551E-01
   1.40000000E+00  2.85026865E-02  1.05785460E-01
   1.41000000E+00  2.95756851E-02  1.08823435E-01
   1.42000000E+00  3.06793392E-02  1.11916595E-01
   1.43000000E+00  3.18142012E-02  1.15065035E-01
   1.44000000E+00  3.29808244E-02  1.18268819E-01
   1.45000000E+00  3.41797622E-02  1.21527988E-01
   1.46000000E+00  3.54115688E-02  1.24842549E-01
   1.47000000E+00  3.66767978E-02  1.28212483E-01
   1.48000000E+00  3.79760028E-02  1.31637739E-01
   1.49000000E+00  3.93097367E-02  1.35118235E-01
   1.50000000E+00  4.06785513E-02  1.38653859E-01
   1.51000000E+00  4.20829972E-02  1.42244466E-01
   1.52000000E+00  4.35236233E-02  1.45889878E-01
   1.53000000E+00  4.50009767E-02  1.49589884E-01
   1.54000000E+00  4.65156022E-02  1.53344239E-01
   1.55000000E+00  4.80680417E-02  1.57152662E-01
   1.56000000E+00  4.96588346E-02  1.61014838E-01
   1.57000000E+00  5.12885165E-02  1.64930417E-01
   1.58000000E+00  5.29576197E-02  1.68899012E-01
   1.59000000E+00  5.46666721E-02  1.72920197E-01
   1.60000000E+00  5.64161974E-02  1.76993510E-01
   1.61000000E+00  5.82067144E-02  1.81118453E-01
   1.62000000E+00  6.00387367E-02  1.85294485E-01
   1.63000000E+00  6.19127724E-02  1.89521030E-01
   1.64000000E+00  6.38293236E-02  1.93797469E-01
   1.65000000E+00  6.57888859E-02  1.98123144E-01
   1.66000000E+00  6.77919483E-02  2.02497358E-01
   1.67000000E+00  6.98389924E-02  2.06919371E-01
   1.68000000E+00  7.19304925E-02  2.11388402E-01
   1.69000000E+00  7.40669145E-02  2.15903627E-01
   1.70000000E+00  7.62487161E-02  2.20464181E-01
   1.71000000E+00  7.84763462E-02  2.25069156E-01
   1.72000000E+00  8.07502441E-02  2.29717600E-01
   1.73000000E+00  8.30708397E-02  2.34408519E-01
   1.74000000E+00  8.54385526E-02  2.39140873E-01
   1.75000000E+00  8.78537917E-02  2.43913580E-01
   1.76000000E+00  9.03169550E-02  2.48725511E-01
   1.77000000E+00  9.28284288E-02  2.53575496E-01
   1.78000000E+00  9.53885877E-02  2.58462316E-01
   1.79000000E+00  9.79977937E-02  2.63384710E-01
   1.80000000E+00  1.00656396E-01  2.68341369E-01
   1.81000000E+00  1.03364731E-01  2.73330940E-01
   1.82000000E+00  1.06123120E-01  2.78352025E-01
   1.83000000E+00  1.08931872E-01  2.83403178E-01
   1.84000000E+00  1.11791279E-01  2.88482908E-01
   1.85000000E+00  1.14701620E-01  2.93589679E-01
   1.86000000E+00  1.17663157E-01  2.98721908E-01
   1.87000000E+00  1.20676137E-01  3.03877966E-01
   1.88000000E+00  1.23740790E-01  3.09056177E-01
   1.89000000E+00  1.26857329E-01  3.14254822E-01
   1.90000000E+00  1.30025949E-01  3.19472133E-01
   1.91000000E+00  1.33246828E-01  3.24706298E-01
   1.92000000E+00  1.36520125E-01  3.29955457E-01
   1.93000000E+00  1.39845981E-01  3.35217707E-01
   1.94000000E+00  1.43224516E-01  3.40491099E-01
   1.95000000E+00  1.46655833E-01  3.45773639E-01
   1.96000000E+00  1.50140013E-01  3.51063287E-01
   1.97000000E+00  1.53677116E-01  3.56357960E-01
   1.98000000E+00  1.57267182E-01  3.61655528E-01
   1.99000000E+00  1.60910229E-01  3.66953821E-01
   2.00000000E+00  1.64606253E-01  3.72250623E-01
   2.01000000E+00  1.68355229E-01  3.77543675E-01
   2.02000000E+00  1.72157106E-01  3.82830677E-01
   2.03000000E+00  1.76011814E-01  3.88109284E-01
   2.04000000E+00  1.79919256E-01  3.93377113E-01
   2.05000000E+00  1.83879312E-01  3.98631737E-01
   2.06000000E+00  1.87891839E-01  4.03870690E-01
   2.07000000E+00  1.91956666E-01  4.09091466E-01
   2.08000000E+00  1.96073599E-01  4.14291503E-01
   2.09000000E+00  2.00242479E-01  4.19486561E-01
   2.10000000E+00  2.04463369E-01  4.24693159E-01
   2.11000000E+00  2.08736376E-01  4.29909836E-01
   2.12000000E+00  2.13061594E-01  4.35135133E-01
   2.13000000E+00  2.17439102E-01  4.40367573E-01
   2.14000000E+00  2.21868964E-01  4.45605663E-01
   2.15000000E+00  2.26351229E-01  4.50847892E-01
   2.16000000E+00  2.30885931E-01  4.56092735E-01
   2.17000000E+00  2.35473088E-01  4.61338649E-01
   2.18000000E+00  2.40112702E-01  4.66584076E-01
   2.19000000E+00  2.44804762E-01  4.71827442E-01
   2.20000000E+00  2.49549239E-01  4.77067155E-01
   2.21000000E+00  2.54346088E-01  4.82301611E-01
   2.22000000E+00  2.59195248E-01  4.87529187E-01
   2.23000000E+00  2.64096643E-01  4.92748245E-01
   2.24000000E+00  2.69050179E-01  4.97957135E-01
   2.25000000E+00  2.74055746E-01  5.03154188E-01
   2.26000000E+00  2.79113218E-01  5.08337723E-01
   2.27000000E+00  2.84222450E-01  5.13506041E-01
   2.28000000E+00  2.89383282E-01  5.18657435E-01
   2.29000000E+00  2.94595537E-01  5.23790178E-01
   2.30000000E+00  2.99859018E-01  5.28902532E-01
   2.31000000E+00  3.05173513E-01  5.33992745E-01
   2.32000000E+00  3.10538793E-01  5.39059052E-01
   2.33000000E+00  3.15954609E-01  5.44099677E-01
   2.34000000E+00  3.21420695E-01  5.49112828E-01
   2.35000000E+00  3.26936768E-01  5.54096704E-01
   2.36000000E+00  3.32502526E-01  5.59049492E-01
   2.37000000E+00  3.38117648E-01  5.63969368E-01
   2.38000000E+00  3.43781797E-01  5.68854494E-01
   2.39000000E+00  3.49494616E-01  5.73703025E-01
   2.40000000E+00  3.55255729E-01  5.78513105E-01
   2.41000000E+00  3.61064744E-01  5.83282868E-01
   2.42000000E+00  3.66921246E-01  5.88010440E-01
   2.43000000E+00  3.72824806E-01  5.92693937E-01
   2.44000000E+00  3.78774972E-01  5.97331467E-01
   2.45000000E+00  3.84771275E-01  6.01921131E-01
   2.46000000E+00  3.90813228E-01  6.06461022E-01
   2.47000000E+00  3.96900323E-01  6.10949226E-01
   2.48000000E+00  4.03032034E-01  6.15383824E-01
   2.49000000E+00  4.09207815E-01  6.19762889E-01
   2.50000000E+00  4.15427100E-01  6.24084493E-01
   2.51000000E+00  4.21689307E-01  6.28346698E-01
   2.52000000E+00  4.27993830E-01  6.32547566E-01
   2.53000000E+00  4.34340047E-01  6.36685152E-01
   2.54000000E+00  4.40727316E-01  6.40757512E-01
   2.55000000E+00  4.47154973E-01  6.44762697E-01
   2.56000000E+00  4.53622339E-01  6.48698756E-01
   2.57000000E+00  4.60128712E-01  6.52563737E-01
   2.58000000E+00  4.66673370E-01  6.56355688E-01
   2.59000000E+00  4.73255575E-01  6.60072656E-01
   2.60000000E+00  4.79874567E-01  6.63712691E-01
   2.61000000E+00  4.86529566E-01  6.67273840E-01
   2.62000000E+00  4.93219774E-01  6.70754155E-01
   2.63000000E+00  4.99944373E-01  6.74151690E-01
   2.64000000E+00  5.06702526E-01  6.77464499E-01
   2.65000000E+00  5.13493375E-01  6.80690643E-01
   2.66000000E+00  5.20316043E-01  6.83828188E-01
   2.67000000E+00  5.27169637E-01  6.86875202E-01
   2.68000000E+00  5.34053239E-01  6.89829759E-01
   2.69000000E+00  5.40965917E-01  6.92689940E-01
   2.70000000E+00  5.47906717E-01  6.95453836E-01
   2.71000000E+00  5.54874667E-01  6.98119540E-01
   2.72000000E+00  5.61868774E-01  7.00685157E-01
   2.73000000E+00  5.68888030E-01  7.03148801E-01
   2.74000000E+00  5.75931404E-01  7.05508591E-01
   2.75000000E+00  5.82997849E-01  7.07762663E-01
   2.76000000E+00  5.90086299E-01  7.09909160E-01
   2.77000000E+00  5.97195668E-01  7.11946239E-01
   2.78000000E+00  6.04324853E-01  7.13872066E-01
   2.79000000E+00  6.11472732E-01  7.15684823E-01
   2.80000000E+00  6.18638166E-01  7.17382703E-01
   2.81000000E+00  6.25819997E-01  7.18963917E-01
   2.82000000E+00  6.33017050E-01  7.20426689E-01
   2.83000000E+00  6.40228130E-01  7.21769259E-01
   2.84000000E+00  6.47452028E-01  7.22989885E-01
   2.85000000E+00  6.54687516E-01  7.24086839E-01
   2.86000000E+00  6.61933347E-01  7.25058413E-01
   2.87000000E+00  6.69188261E-01  7.25902918E-01
   2.88000000E+00  6.76450977E-01  7.26618686E-01
   2.89000000E+00  6.83720200E-01  7.27204065E-01
   2.90000000E+00  6.90994618E-01  7.27657426E-01
   2.91000000E+00  6.98272903E-01  7.27977160E-01
   2.92000000E+00  7.05553710E-01  7.28161682E-01
   2.93000000E+00  7.12835680E-01  7.28209430E-01
   2.94000000E+00  7.20117438E-01  7.28118863E-01
   2.95000000E+00  7.27397592E-01  7.27888466E-01
   2.96000000E+00  7.34674736E-01  7.27516749E-01
   2.97000000E+00  7.41947451E-01  7.27002246E-01
   2.98000000E+00  7.49214300E-01  7.26343520E-01
   2.99000000E+00  7.56473836E-01  7.25539158E-01
   3.00000000E+00  7.63724593E-01  7.24587775E-01
   3.01000000E+00  7.70965096E-01  7.23488015E-01
   3.02000000E+00  7.78193855E-01  7.22238550E-01
   3.03000000E+00  7.85409364E-01  7.20838084E-01
   3.04000000E+00  7.92610109E-01  7.19285347E-01
   3.05000000E+00  7.99794559E-01  7.17579104E-01
   3.06000000E+00  8.06961175E-01  7.15718149E-01
   3.07000000E+00  8.14108403E-01  7.13701309E-01
   3.08000000E+00  8.21234678E-01  7.11527442E-01
   3.09000000E+00  8.28338424E-01  7.09195443E-01
   3.10000000E+00  8.35418056E-01  7.06704236E-01
   3.11000000E+00  8.42471975E-01  7.04052783E-01
   3.12000000E+00  8.49498574E-01  7.01240080E-01
   3.13000000E+00  8.56496236E-01  6.98265167E-01
   3.14000000E+00  8.63463334E-01  6.95127094E-01
   3.15000000E+00  8.70398231E-01  6.91824984E-01
   3.16000000E+00  8.77299284E-01  6.88357969E-01
   3.17000000E+00  8.84164838E-01  6.84725230E-01
   3.18000000E+00  8.90993233E-01  6.80925990E-01
   3.19000000E+00  8.97782800E-01  6.76959506E-01
   3.20000000E+00  9.04531863E-01  6.72825080E-01
   3.21000000E+00  9.11238740E-01  6.68522046E-01
   3.22000000E+00  9.17901740E-01  6.64049783E-01
   3.23000000E+00  9.24519169E-01  6.59407710E-01
   3.24000000E+00  9.31089327E-01  6.54595292E-01
   3.25000000E+00  9.37610506E-01  6.49612030E-01
   3.26000000E+00  9.44080996E-01  6.44457468E-01
   3.27000000E+00  9.50499083E-01  6.39131198E-01
   3.28000000E+00  9.56863047E-01  6.33632854E-01
   3.29000000E+00  9.63171165E-01  6.27962113E-01
   3.30000000E+00  9.69421713E-01  6.22118694E-01
   3.31000000E+00  9.75612963E-01  6.16102363E-01
   3.32000000E+00  9.81743184E-01  6.09912933E-01
   3.33000000E+00  9.87810644E-01  6.03550258E-01
   3.34000000E+00  9.93813611E-01  5.97014245E-01
   3.35000000E+00  9.99750351E-01  5.90304842E-01
   3.36000000E+00  1.00561913E+00  5.83422044E-01
   3.37000000E+00  1.01141821E+00  5.76365898E-01
   3.38000000E+00  1.01714587E+00  5.69136492E-01
   3.39000000E+00  1.02280037E+00  5.61733963E-01
   3.40000000E+00  1.02837997E+00  5.54158498E-01
   3.41000000E+00  1.03388296E+00  5.46410329E-01
   3.42000000E+00  1.03930760E+00  5.38489742E-01
   3.43000000E+00  1.04465218E+00  5.30397070E-01
   3.44000000E+00  1.04991497E+00  5.22132691E-01
   3.45000000E+00  1.05509427E+00  5.13697037E-01
   3.46000000E+00  1.06018835E+00  5.05090588E-01
   3.47000000E+00  1.06519551E+00  4.96313873E-01
   3.48000000E+00  1.07011406E+00  4.87367475E-01
   3.49000000E+00  1.07494230E+00  4.78252018E-01
   3.50000000E+00  1.07967854E+00  4.68968182E-01
   3.51000000E+00  1.08432110E+00  4.59516704E-01
   3.52000000E+00  1.08886831E+00  4.49898360E-01
   3.53000000E+00  1.09331851E+00  4.40113981E-01
   3.54000000E+00  1.09767004E+00  4.30164454E-01
   3.55000000E+00  1.10192126E+00  4.20050705E-01
   3.56000000E+00  1.10607051E+00  4.09773722E-01
   3.57000000E+00  1.11011619E+00  3.99334541E-01
   3.58000000E+00  1.11405667E+00  3.88734250E-01
   3.59000000E+00  1.11789034E+00  3.77973983E-01
   3.60000000E+00  1.12161562E+00  3.67054929E-01
   3.61000000E+00  1.12523091E+00  3.55978329E-01
   3.62000000E+00  1.12873466E+00  3.44745473E-01
   3.63000000E+00  1.13212531E+00  3.33357703E-01
   3.64000000E+00  1.13540131E+00  3.21816411E-01
   3.65000000E+00  1.13856113E+00  3.10123041E-01
   3.66000000E+00  1.14160326E+00  2.98279090E-01
   3.67000000E+00  1.14452621E+00  2.86286099E-01
   3.68000000E+00  1.14732849E+00  2.74145663E-01
   3.69000000E+00  1.15000864E+00  2.61859428E-01
   3.70000000E+00  1.15256520E+00  2.49429095E-01
   3.71000000E+00  1.15499675E+00  2.36856405E-01
   3.72000000E+00  1.15730186E+00  2.24143155E-01
   3.73000000E+00  1.15947915E+00  2.11291195E-01
   3.74000000E+00  1.16152723E+00  1.98302417E-01
   3.75000000E+00  1.16344475E+00  1.85178767E-01
   3.76000000E+00  1.16523036E+00  1.71922242E-01
   3.77000000E+00  1.16688276E+00  1.58534880E-01
   3.78000000E+00  1.16840063E+00  1.45018773E-01
   3.79000000E+00  1.16978271E+00  1.31376063E-01
   3.80000000E+00  1.17102774E+00  1.17608937E-01
   3.81000000E+00  1.17213448E+00  1.03719631E-01
   3.82000000E+00  1.17310173E+00  8.97104253E-02
   3.83000000E+00  1.17392830E+00  7.55836490E-02
   3.84000000E+00  1.17461302E+00  6.13416765E-02
   3.85000000E+00  1.17515476E+00  4.69869312E-02
   3.86000000E+00  1.17555239E+00  3.25218804E-02
   3.87000000E+00  1.17580483E+00  1.79490345E-02
   3.88000000E+00  1.17591102E+00  3.27095613E-03
   3.89000000E+00  1.17586991E+00 -1.15097528E-02
   3.90000000E+00  1.17568049E+00 -2.63904532E-02
