 # Radial wave functions calculated by RADIAL.
 # **** Schrodinger Eq. Numerical potential.
 #      Input potential file: potential_1T2x.dat  
 #      Free state: E= 2.719449E+00, L=   1  (EPS= 1.0E-15)
 #        Inner phase shift=-1.211718192450917E-08
 #      Coulomb phase shift=-1.864915662955106E-01  (ETA=-4.287899E-01)
 #      Matching radius: RAD(    5)= 4.000000000000000E-02
 #       R              P(R)            Q(R)
   0.00000000E+00  0.00000000E+00  0.00000000E+00
   1.00000000E-02  3.33618419E-04  6.65763397E-02
   2.00000000E-02  1.32759651E-03  1.32044547E-01
   3.00000000E-02  2.97126627E-03  1.96506352E-01
   4.00000000E-02  5.25389808E-03  2.59832556E-01
   5.00000000E-02  8.16411255E-03  3.22017368E-01
   6.00000000E-02  1.16903328E-02  3.83028420E-01
   7.00000000E-02  1.58206643E-02  4.42834522E-01
   8.00000000E-02  2.05429059E-02  5.01405473E-01
   9.00000000E-02  2.58445590E-02  5.58712022E-01
   1.00000000E-01  3.17128372E-02  6.14725857E-01
   1.10000000E-01  3.81346758E-02  6.69419616E-01
   1.20000000E-01  4.50967412E-02  7.22766892E-01
   1.30000000E-01  5.25854405E-02  7.74742244E-01
   1.40000000E-01  6.05869313E-02  8.25321209E-01
   1.50000000E-01  6.90871316E-02  8.74480308E-01
   1.60000000E-01  7.80717295E-02  9.22197057E-01
   1.70000000E-01  8.75261932E-02  9.68449978E-01
   1.80000000E-01  9.74357813E-02  1.01321861E+00
   1.90000000E-01  1.07785553E-01  1.05648349E+00
   2.00000000E-01  1.18560377E-01  1.09822623E+00
   2.10000000E-01  1.29744945E-01  1.13842942E+00
   2.20000000E-01  1.41323779E-01  1.17707673E+00
   2.30000000E-01  1.53281243E-01  1.21415286E+00
   2.40000000E-01  1.65601552E-01  1.24964357E+00
   2.50000000E-01  1.78268785E-01  1.28353566E+00
   2.60000000E-01  1.91266895E-01  1.31581700E+00
   2.70000000E-01  2.04579719E-01  1.34647653E+00
   2.80000000E-01  2.18190986E-01  1.37550422E+00
   2.90000000E-01  2.32084334E-01  1.40289114E+00
   3.00000000E-01  2.46243314E-01  1.42862942E+00
   3.10000000E-01  2.60651404E-01  1.45271224E+00
   3.20000000E-01  2.75292021E-01  1.47513385E+00
   3.30000000E-01  2.90148528E-01  1.49588959E+00
   3.40000000E-01  3.05204248E-01  1.51497584E+00
   3.50000000E-01  3.20442471E-01  1.53239005E+00
   3.60000000E-01  3.35846470E-01  1.54813072E+00
   3.70000000E-01  3.51399506E-01  1.56219743E+00
   3.80000000E-01  3.67084841E-01  1.57459079E+00
   3.90000000E-01  3.82885749E-01  1.58531246E+00
   4.00000000E-01  3.98785527E-01  1.59436516E+00
   4.10000000E-01  4.14767501E-01  1.60175263E+00
   4.20000000E-01  4.30815044E-01  1.60747966E+00
   4.30000000E-01  4.46911579E-01  1.61155204E+00
   4.40000000E-01  4.63040592E-01  1.61397659E+00
   4.50000000E-01  4.79185644E-01  1.61476115E+00
   4.60000000E-01  4.95330378E-01  1.61391454E+00
   4.70000000E-01  5.11458530E-01  1.61144659E+00
   4.80000000E-01  5.27553941E-01  1.60736809E+00
   4.90000000E-01  5.43600563E-01  1.60169083E+00
   5.00000000E-01  5.59582471E-01  1.59442754E+00
   5.10000000E-01  5.75483872E-01  1.58559190E+00
   5.20000000E-01  5.91289116E-01  1.57519856E+00
   5.30000000E-01  6.06982703E-01  1.56326304E+00
   5.40000000E-01  6.22549291E-01  1.54980183E+00
   5.50000000E-01  6.37973711E-01  1.53483228E+00
   5.60000000E-01  6.53240970E-01  1.51837266E+00
   5.70000000E-01  6.68336261E-01  1.50044207E+00
   5.80000000E-01  6.83244975E-01  1.48106050E+00
   5.90000000E-01  6.97952704E-01  1.46024878E+00
   6.00000000E-01  7.12445255E-01  1.43802856E+00
   6.10000000E-01  7.26708655E-01  1.41442229E+00
   6.20000000E-01  7.40729158E-01  1.38945324E+00
   6.30000000E-01  7.54493257E-01  1.36314544E+00
   6.40000000E-01  7.67987687E-01  1.33552369E+00
   6.50000000E-01  7.81199436E-01  1.30661351E+00
   6.60000000E-01  7.94115750E-01  1.27644118E+00
   6.70000000E-01  8.06724142E-01  1.24503365E+00
   6.80000000E-01  8.19012398E-01  1.21241860E+00
   6.90000000E-01  8.30968583E-01  1.17862433E+00
   7.00000000E-01  8.42581051E-01  1.14367983E+00
   7.10000000E-01  8.53838445E-01  1.10761469E+00
   7.20000000E-01  8.64729710E-01  1.07045913E+00
   7.30000000E-01  8.75244095E-01  1.03224395E+00
   7.40000000E-01  8.85371161E-01  9.93000520E-01
   7.50000000E-01  8.95100784E-01  9.52760750E-01
   7.60000000E-01  9.04423163E-01  9.11557085E-01
   7.70000000E-01  9.13328823E-01  8.69422471E-01
   7.80000000E-01  9.21808621E-01  8.26390338E-01
   7.90000000E-01  9.29853751E-01  7.82494576E-01
   8.00000000E-01  9.37455748E-01  7.37769514E-01
   8.10000000E-01  9.44606492E-01  6.92249898E-01
   8.20000000E-01  9.51298214E-01  6.45970867E-01
   8.30000000E-01  9.57523497E-01  5.98967933E-01
   8.40000000E-01  9.63275279E-01  5.51276955E-01
   8.50000000E-01  9.68546863E-01  5.02934118E-01
   8.60000000E-01  9.73331911E-01  4.53975909E-01
   8.70000000E-01  9.77624452E-01  4.04439097E-01
   8.80000000E-01  9.81418887E-01  3.54360702E-01
   8.90000000E-01  9.84709985E-01  3.03777982E-01
   9.00000000E-01  9.87492891E-01  2.52728400E-01
   9.10000000E-01  9.89763123E-01  2.01249607E-01
   9.20000000E-01  9.91516578E-01  1.49379414E-01
   9.30000000E-01  9.92749533E-01  9.71557716E-02
   9.40000000E-01  9.93458642E-01  4.46167459E-02
   9.50000000E-01  9.93640944E-01 -8.19950743E-03
   9.60000000E-01  9.93293855E-01 -6.12547644E-02
   9.70000000E-01  9.92415179E-01 -1.14510757E-01
   9.80000000E-01  9.91003099E-01 -1.67929198E-01
   9.90000000E-01  9.89056181E-01 -2.21471802E-01
   1.00000000E+00  9.86573376E-01 -2.75100311E-01
   1.01000000E+00  9.83554016E-01 -3.28776516E-01
   1.02000000E+00  9.79997814E-01 -3.82462283E-01
   1.03000000E+00  9.75904865E-01 -4.36119572E-01
   1.04000000E+00  9.71275644E-01 -4.89710466E-01
   1.05000000E+00  9.66111003E-01 -5.43197188E-01
   1.06000000E+00  9.60412173E-01 -5.96542125E-01
   1.07000000E+00  9.54180758E-01 -6.49707856E-01
   1.08000000E+00  9.47418737E-01 -7.02657166E-01
   1.09000000E+00  9.40128460E-01 -7.55353076E-01
   1.10000000E+00  9.32312643E-01 -8.07758859E-01
   1.11000000E+00  9.23974371E-01 -8.59838067E-01
   1.12000000E+00  9.15117091E-01 -9.11554549E-01
   1.13000000E+00  9.05744609E-01 -9.62872473E-01
   1.14000000E+00  8.95861088E-01 -1.01375635E+00
   1.15000000E+00  8.85471046E-01 -1.06417105E+00
   1.16000000E+00  8.74579347E-01 -1.11408183E+00
   1.17000000E+00  8.63191203E-01 -1.16345434E+00
   1.18000000E+00  8.51312167E-01 -1.21225467E+00
   1.19000000E+00  8.38948129E-01 -1.26044933E+00
   1.20000000E+00  8.26105310E-01 -1.30800532E+00
   1.21000000E+00  8.12790260E-01 -1.35489009E+00
   1.22000000E+00  7.99009852E-01 -1.40107162E+00
   1.23000000E+00  7.84771277E-01 -1.44651839E+00
   1.24000000E+00  7.70082037E-01 -1.49119943E+00
   1.25000000E+00  7.54949942E-01 -1.53508431E+00
   1.26000000E+00  7.39383104E-01 -1.57814317E+00
   1.27000000E+00  7.23389930E-01 -1.62034676E+00
   1.28000000E+00  7.06979115E-01 -1.66166643E+00
   1.29000000E+00  6.90159641E-01 -1.70207414E+00
   1.30000000E+00  6.72940764E-01 -1.74154248E+00
   1.31000000E+00  6.55332012E-01 -1.78004473E+00
   1.32000000E+00  6.37343176E-01 -1.81755481E+00
   1.33000000E+00  6.18984307E-01 -1.85404732E+00
   1.34000000E+00  6.00265704E-01 -1.88949757E+00
   1.35000000E+00  5.81197910E-01 -1.92388158E+00
   1.36000000E+00  5.61791705E-01 -1.95717608E+00
   1.37000000E+00  5.42058095E-01 -1.98935856E+00
   1.38000000E+00  5.22008313E-01 -2.02040724E+00
   1.39000000E+00  5.01653800E-01 -2.05030110E+00
   1.40000000E+00  4.81006208E-01 -2.07901991E+00
   1.41000000E+00  4.60077384E-01 -2.10654420E+00
   1.42000000E+00  4.38879368E-01 -2.13285532E+00
   1.43000000E+00  4.17424381E-01 -2.15793539E+00
   1.44000000E+00  3.95724820E-01 -2.18176737E+00
   1.45000000E+00  3.73793248E-01 -2.20433503E+00
   1.46000000E+00  3.51642386E-01 -2.22562297E+00
   1.47000000E+00  3.29285103E-01 -2.24561664E+00
   1.48000000E+00  3.06734413E-01 -2.26430231E+00
   1.49000000E+00  2.84003460E-01 -2.28166713E+00
   1.50000000E+00  2.61105513E-01 -2.29769908E+00
   1.51000000E+00  2.38053958E-01 -2.31238702E+00
   1.52000000E+00  2.14862287E-01 -2.32572068E+00
   1.53000000E+00  1.91544090E-01 -2.33769067E+00
   1.54000000E+00  1.68113048E-01 -2.34828845E+00
   1.55000000E+00  1.44582921E-01 -2.35750640E+00
   1.56000000E+00  1.20967542E-01 -2.36533775E+00
   1.57000000E+00  9.72808075E-02 -2.37177664E+00
   1.58000000E+00  7.35366676E-02 -2.37681808E+00
   1.59000000E+00  4.97491178E-02 -2.38045800E+00
   1.60000000E+00  2.59321902E-02 -2.38269318E+00
   1.61000000E+00  2.09994431E-03 -2.38352134E+00
   1.62000000E+00 -2.17335417E-02 -2.38294106E+00
   1.63000000E+00 -4.55541802E-02 -2.38095181E+00
   1.64000000E+00 -6.93478825E-02 -2.37755397E+00
   1.65000000E+00 -9.31005683E-02 -2.37274879E+00
   1.66000000E+00 -1.16798174E-01 -2.36653843E+00
   1.67000000E+00 -1.40426663E-01 -2.35892590E+00
   1.68000000E+00 -1.63972031E-01 -2.34991512E+00
   1.69000000E+00 -1.87420320E-01 -2.33951087E+00
   1.70000000E+00 -2.10757622E-01 -2.32771880E+00
   1.71000000E+00 -2.33970092E-01 -2.31454546E+00
   1.72000000E+00 -2.57043952E-01 -2.29999821E+00
   1.73000000E+00 -2.79965504E-01 -2.28408531E+00
   1.74000000E+00 -3.02721136E-01 -2.26681585E+00
   1.75000000E+00 -3.25297332E-01 -2.24819975E+00
   1.76000000E+00 -3.47680678E-01 -2.22824781E+00
   1.77000000E+00 -3.69857874E-01 -2.20697161E+00
   1.78000000E+00 -3.91815738E-01 -2.18438357E+00
   1.79000000E+00 -4.13541216E-01 -2.16049693E+00
   1.80000000E+00 -4.35021394E-01 -2.13532572E+00
   1.81000000E+00 -4.56243498E-01 -2.10888476E+00
   1.82000000E+00 -4.77194909E-01 -2.08118965E+00
   1.83000000E+00 -4.97863165E-01 -2.05225678E+00
   1.84000000E+00 -5.18235975E-01 -2.02210328E+00
   1.85000000E+00 -5.38301222E-01 -1.99074704E+00
   1.86000000E+00 -5.58046969E-01 -1.95820668E+00
   1.87000000E+00 -5.77461473E-01 -1.92450154E+00
   1.88000000E+00 -5.96533184E-01 -1.88965170E+00
   1.89000000E+00 -6.15250760E-01 -1.85367789E+00
   1.90000000E+00 -6.33603067E-01 -1.81660157E+00
   1.91000000E+00 -6.51579190E-01 -1.77844484E+00
   1.92000000E+00 -6.69168438E-01 -1.73923048E+00
   1.93000000E+00 -6.86360352E-01 -1.69898191E+00
   1.94000000E+00 -7.03144709E-01 -1.65772315E+00
   1.95000000E+00 -7.19511530E-01 -1.61547886E+00
   1.96000000E+00 -7.35451085E-01 -1.57227428E+00
   1.97000000E+00 -7.50953900E-01 -1.52813524E+00
   1.98000000E+00 -7.66010763E-01 -1.48308814E+00
   1.99000000E+00 -7.80612726E-01 -1.43715990E+00
   2.00000000E+00 -7.94751115E-01 -1.39037799E+00
   2.01000000E+00 -8.08417533E-01 -1.34277039E+00
   2.02000000E+00 -8.21603866E-01 -1.29436557E+00
   2.03000000E+00 -8.34302284E-01 -1.24519249E+00
   2.04000000E+00 -8.46505253E-01 -1.19528055E+00
   2.05000000E+00 -8.58205532E-01 -1.14465960E+00
   2.06000000E+00 -8.69396182E-01 -1.09335991E+00
   2.07000000E+00 -8.80070570E-01 -1.04141216E+00
   2.08000000E+00 -8.90222369E-01 -9.88847405E-01
   2.09000000E+00 -8.99845566E-01 -9.35697067E-01
   2.10000000E+00 -9.08934464E-01 -8.81992916E-01
   2.11000000E+00 -9.17483685E-01 -8.27767046E-01
   2.12000000E+00 -9.25488174E-01 -7.73051860E-01
   2.13000000E+00 -9.32943200E-01 -7.17880043E-01
   2.14000000E+00 -9.39844362E-01 -6.62284549E-01
   2.15000000E+00 -9.46187589E-01 -6.06298576E-01
   2.16000000E+00 -9.51969144E-01 -5.49955550E-01
   2.17000000E+00 -9.57185622E-01 -4.93289100E-01
   2.18000000E+00 -9.61833960E-01 -4.36333040E-01
   2.19000000E+00 -9.65911431E-01 -3.79121350E-01
   2.20000000E+00 -9.69415649E-01 -3.21688150E-01
   2.21000000E+00 -9.72344570E-01 -2.64067687E-01
   2.22000000E+00 -9.74696493E-01 -2.06294306E-01
   2.23000000E+00 -9.76470061E-01 -1.48402434E-01
   2.24000000E+00 -9.77664261E-01 -9.04265611E-02
   2.25000000E+00 -9.78278427E-01 -3.24012133E-02
   2.26000000E+00 -9.78312236E-01  2.56390633E-02
   2.27000000E+00 -9.77765711E-01  8.36597249E-02
   2.28000000E+00 -9.76639222E-01  1.41626251E-01
   2.29000000E+00 -9.74933482E-01  1.99504164E-01
   2.30000000E+00 -9.72649549E-01  2.57259052E-01
   2.31000000E+00 -9.69788825E-01  3.14856588E-01
   2.32000000E+00 -9.66353056E-01  3.72262550E-01
   2.33000000E+00 -9.62344326E-01  4.29442842E-01
   2.34000000E+00 -9.57765064E-01  4.86363516E-01
   2.35000000E+00 -9.52618034E-01  5.42990790E-01
   2.36000000E+00 -9.46906338E-01  5.99291068E-01
   2.37000000E+00 -9.40633414E-01  6.55230963E-01
   2.38000000E+00 -9.33803031E-01  7.10777313E-01
   2.39000000E+00 -9.26419289E-01  7.65897203E-01
   2.40000000E+00 -9.18486617E-01  8.20557985E-01
   2.41000000E+00 -9.10009768E-01  8.74727296E-01
   2.42000000E+00 -9.00993816E-01  9.28373077E-01
   2.43000000E+00 -8.91444157E-01  9.81463594E-01
   2.44000000E+00 -8.81366500E-01  1.03396745E+00
   2.45000000E+00 -8.70766867E-01  1.08585362E+00
   2.46000000E+00 -8.59651589E-01  1.13709145E+00
   2.47000000E+00 -8.48027300E-01  1.18765068E+00
   2.48000000E+00 -8.35900937E-01  1.23750148E+00
   2.49000000E+00 -8.23279730E-01  1.28661442E+00
   2.50000000E+00 -8.10171204E-01  1.33496057E+00
   2.51000000E+00 -7.96583170E-01  1.38251142E+00
   2.52000000E+00 -7.82523720E-01  1.42923897E+00
   2.53000000E+00 -7.68001227E-01  1.47511571E+00
   2.54000000E+00 -7.53024332E-01  1.52011465E+00
   2.55000000E+00 -7.37601948E-01  1.56420932E+00
   2.56000000E+00 -7.21743246E-01  1.60737382E+00
   2.57000000E+00 -7.05457657E-01  1.64958279E+00
   2.58000000E+00 -6.88754858E-01  1.69081146E+00
   2.59000000E+00 -6.71644776E-01  1.73103565E+00
   2.60000000E+00 -6.54137572E-01  1.77023177E+00
   2.61000000E+00 -6.36243644E-01  1.80837687E+00
   2.62000000E+00 -6.17973613E-01  1.84544862E+00
   2.63000000E+00 -5.99338322E-01  1.88142533E+00
   2.64000000E+00 -5.80348827E-01  1.91628599E+00
   2.65000000E+00 -5.61016390E-01  1.95001024E+00
   2.66000000E+00 -5.41352475E-01  1.98257840E+00
   2.67000000E+00 -5.21368739E-01  2.01397150E+00
   2.68000000E+00 -5.01077023E-01  2.04417124E+00
   2.69000000E+00 -4.80489351E-01  2.07316008E+00
   2.70000000E+00 -4.59617914E-01  2.10092116E+00
   2.71000000E+00 -4.38475074E-01  2.12743838E+00
   2.72000000E+00 -4.17073344E-01  2.15269636E+00
   2.73000000E+00 -3.95425393E-01  2.17668051E+00
   2.74000000E+00 -3.73544027E-01  2.19937696E+00
   2.75000000E+00 -3.51442190E-01  2.22077261E+00
   2.76000000E+00 -3.29132951E-01  2.24085516E+00
   2.77000000E+00 -3.06629502E-01  2.25961308E+00
   2.78000000E+00 -2.83945141E-01  2.27703560E+00
   2.79000000E+00 -2.61093274E-01  2.29311279E+00
   2.80000000E+00 -2.38087401E-01  2.30783547E+00
   2.81000000E+00 -2.14941108E-01  2.32119532E+00
   2.82000000E+00 -1.91668062E-01  2.33318476E+00
   2.83000000E+00 -1.68282003E-01  2.34379709E+00
   2.84000000E+00 -1.44796731E-01  2.35302637E+00
   2.85000000E+00 -1.21226103E-01  2.36086751E+00
   2.86000000E+00 -9.75840221E-02  2.36731624E+00
   2.87000000E+00 -7.38844310E-02  2.37236909E+00
   2.88000000E+00 -5.01413020E-02  2.37602345E+00
   2.89000000E+00 -2.63686298E-02  2.37827750E+00
   2.90000000E+00 -2.58042309E-03  2.37913026E+00
   2.91000000E+00  2.12093039E-02  2.37858160E+00
   2.92000000E+00  4.49865396E-02  2.37663217E+00
   2.93000000E+00  6.87372830E-02  2.37328348E+00
   2.94000000E+00  9.24475527E-02  2.36853786E+00
   2.95000000E+00  1.16103394E-01  2.36239844E+00
   2.96000000E+00  1.39690889E-01  2.35486920E+00
   2.97000000E+00  1.63196161E-01  2.34595491E+00
   2.98000000E+00  1.86605389E-01  2.33566117E+00
   2.99000000E+00  2.09904808E-01  2.32399438E+00
   3.00000000E+00  2.33080723E-01  2.31096176E+00
   3.01000000E+00  2.56119517E-01  2.29657131E+00
   3.02000000E+00  2.79007653E-01  2.28083184E+00
   3.03000000E+00  3.01731689E-01  2.26375295E+00
   3.04000000E+00  3.24278282E-01  2.24534503E+00
   3.05000000E+00  3.46634196E-01  2.22561921E+00
   3.06000000E+00  3.68786312E-01  2.20458744E+00
   3.07000000E+00  3.90721634E-01  2.18226241E+00
   3.08000000E+00  4.12427295E-01  2.15865757E+00
   3.09000000E+00  4.33890567E-01  2.13378710E+00
   3.10000000E+00  4.55098868E-01  2.10766593E+00
   3.11000000E+00  4.76039768E-01  2.08030974E+00
   3.12000000E+00  4.96701000E-01  2.05173489E+00
   3.13000000E+00  5.17070461E-01  2.02195848E+00
   3.14000000E+00  5.37136224E-01  1.99099830E+00
   3.15000000E+00  5.56886542E-01  1.95887281E+00
   3.16000000E+00  5.76309859E-01  1.92560118E+00
   3.17000000E+00  5.95394812E-01  1.89120322E+00
   3.18000000E+00  6.14130238E-01  1.85569940E+00
   3.19000000E+00  6.32505184E-01  1.81911084E+00
   3.20000000E+00  6.50508911E-01  1.78145927E+00
   3.21000000E+00  6.68130900E-01  1.74276705E+00
   3.22000000E+00  6.85360859E-01  1.70305713E+00
   3.23000000E+00  7.02188729E-01  1.66235307E+00
   3.24000000E+00  7.18604687E-01  1.62067898E+00
   3.25000000E+00  7.34599157E-01  1.57805954E+00
   3.26000000E+00  7.50162811E-01  1.53451998E+00
   3.27000000E+00  7.65286576E-01  1.49008603E+00
   3.28000000E+00  7.79961638E-01  1.44478398E+00
   3.29000000E+00  7.94179451E-01  1.39864059E+00
   3.30000000E+00  8.07931736E-01  1.35168310E+00
   3.31000000E+00  8.21210491E-01  1.30393924E+00
   3.32000000E+00  8.34007993E-01  1.25543715E+00
   3.33000000E+00  8.46316802E-01  1.20620546E+00
   3.34000000E+00  8.58129767E-01  1.15627315E+00
   3.35000000E+00  8.69440028E-01  1.10566966E+00
   3.36000000E+00  8.80241022E-01  1.05442478E+00
   3.37000000E+00  8.90526486E-01  1.00256866E+00
   3.38000000E+00  9.00290460E-01  9.50131814E-01
   3.39000000E+00  9.09527290E-01  8.97145074E-01
   3.40000000E+00  9.18231632E-01  8.43639585E-01
   3.41000000E+00  9.26398457E-01  7.89646783E-01
   3.42000000E+00  9.34023049E-01  7.35198378E-01
   3.43000000E+00  9.41101012E-01  6.80326335E-01
   3.44000000E+00  9.47628271E-01  6.25062853E-01
   3.45000000E+00  9.53601073E-01  5.69440349E-01
   3.46000000E+00  9.59015990E-01  5.13491440E-01
   3.47000000E+00  9.63869923E-01  4.57248919E-01
   3.48000000E+00  9.68160099E-01  4.00745739E-01
   3.49000000E+00  9.71884079E-01  3.44014995E-01
   3.50000000E+00  9.75039751E-01  2.87089900E-01
   3.51000000E+00  9.77625340E-01  2.30003772E-01
   3.52000000E+00  9.79639401E-01  1.72790008E-01
   3.53000000E+00  9.81080826E-01  1.15482068E-01
   3.54000000E+00  9.81948840E-01  5.81134563E-02
   3.55000000E+00  9.82243005E-01  7.17699400E-04
   3.56000000E+00  9.81963216E-01 -5.66716721E-02
   3.57000000E+00  9.81109704E-01 -1.14021143E-01
   3.58000000E+00  9.79683037E-01 -1.71297235E-01
   3.59000000E+00  9.77684116E-01 -2.28466522E-01
   3.60000000E+00  9.75114174E-01 -2.85495655E-01
   3.61000000E+00  9.71974781E-01 -3.42351375E-01
   3.62000000E+00  9.68267835E-01 -3.99000540E-01
   3.63000000E+00  9.63995569E-01 -4.55410137E-01
   3.64000000E+00  9.59160541E-01 -5.11547306E-01
   3.65000000E+00  9.53765639E-01 -5.67379357E-01
   3.66000000E+00  9.47814079E-01 -6.22873789E-01
   3.67000000E+00  9.41309397E-01 -6.77998310E-01
   3.68000000E+00  9.34255453E-01 -7.32720854E-01
   3.69000000E+00  9.26656426E-01 -7.87009601E-01
   3.70000000E+00  9.18516812E-01 -8.40832995E-01
   3.71000000E+00  9.09841421E-01 -8.94159762E-01
   3.72000000E+00  9.00635375E-01 -9.46958927E-01
   3.73000000E+00  8.90904104E-01 -9.99199835E-01
   3.74000000E+00  8.80653341E-01 -1.05085216E+00
   3.75000000E+00  8.69889122E-01 -1.10188595E+00
   3.76000000E+00  8.58617782E-01 -1.15227159E+00
   3.77000000E+00  8.46845948E-01 -1.20197989E+00
   3.78000000E+00  8.34580538E-01 -1.25098202E+00
   3.79000000E+00  8.21828756E-01 -1.29924962E+00
   3.80000000E+00  8.08598088E-01 -1.34675473E+00
   3.81000000E+00  7.94896295E-01 -1.39346986E+00
   3.82000000E+00  7.80731414E-01 -1.43936798E+00
   3.83000000E+00  7.66111747E-01 -1.48442256E+00
   3.84000000E+00  7.51045861E-01 -1.52860755E+00
   3.85000000E+00  7.35542580E-01 -1.57189742E+00
   3.86000000E+00  7.19610980E-01 -1.61426719E+00
   3.87000000E+00  7.03260385E-01 -1.65569239E+00
   3.88000000E+00  6.86500361E-01 -1.69614914E+00
   3.89000000E+00  6.69340708E-01 -1.73561409E+00
   3.90000000E+00  6.51791460E-01 -1.77406453E+00
