 # Radial wave functions calculated by RADIAL.
 # **** Schrodinger Eq. Numerical potential.
 #      Input potential file: potential_1T2y.dat  
 #      Free state: E= 4.409917E-01, L=   1  (EPS= 1.0E-15)
 #        Inner phase shift= 1.243810323490736E+00
 #      Coulomb phase shift=-5.229382215928716E-01  (ETA=-1.064838E+00)
 #      Matching radius: RAD(  896)= 8.949999999999999E+00
 #       R              P(R)            Q(R)
   0.00000000E+00  0.00000000E+00  0.00000000E+00
   1.00000000E-02  7.15320497E-04  1.40944662E-01
   2.00000000E-02  2.77826749E-03  2.69698919E-01
   3.00000000E-02  6.07201144E-03  3.87264272E-01
   4.00000000E-02  1.04893373E-02  4.94562330E-01
   5.00000000E-02  1.59318552E-02  5.92437053E-01
   6.00000000E-02  2.23092414E-02  6.81658376E-01
   7.00000000E-02  2.95385199E-02  7.62926703E-01
   8.00000000E-02  3.75433915E-02  8.36877862E-01
   9.00000000E-02  4.62536139E-02  9.04088260E-01
   1.00000000E-01  5.56044333E-02  9.65080013E-01
   1.10000000E-01  6.55360663E-02  1.02032592E+00
   1.20000000E-01  7.59932307E-02  1.07025419E+00
   1.30000000E-01  8.69247221E-02  1.11525287E+00
   1.40000000E-01  9.82830331E-02  1.15567399E+00
   1.50000000E-01  1.10024012E-01  1.19183731E+00
   1.60000000E-01  1.22106559E-01  1.22403373E+00
   1.70000000E-01  1.34492350E-01  1.25252843E+00
   1.80000000E-01  1.47145598E-01  1.27756365E+00
   1.90000000E-01  1.60032833E-01  1.29936122E+00
   2.00000000E-01  1.73122711E-01  1.31812473E+00
   2.10000000E-01  1.86385841E-01  1.33404157E+00
   2.20000000E-01  1.99794631E-01  1.34728468E+00
   2.30000000E-01  2.13323156E-01  1.35801411E+00
   2.40000000E-01  2.26947031E-01  1.36637841E+00
   2.50000000E-01  2.40643303E-01  1.37251577E+00
   2.60000000E-01  2.54390354E-01  1.37655520E+00
   2.70000000E-01  2.68167817E-01  1.37861737E+00
   2.80000000E-01  2.81956489E-01  1.37881544E+00
   2.90000000E-01  2.95738267E-01  1.37725585E+00
   3.00000000E-01  3.09496082E-01  1.37403888E+00
   3.10000000E-01  3.23213836E-01  1.36925920E+00
   3.20000000E-01  3.36876356E-01  1.36300643E+00
   3.30000000E-01  3.50469338E-01  1.35536546E+00
   3.40000000E-01  3.63979307E-01  1.34641692E+00
   3.50000000E-01  3.77393574E-01  1.33623740E+00
   3.60000000E-01  3.90700195E-01  1.32489983E+00
   3.70000000E-01  4.03887942E-01  1.31247368E+00
   3.80000000E-01  4.16946262E-01  1.29902523E+00
   3.90000000E-01  4.29865250E-01  1.28461768E+00
   4.00000000E-01  4.42635620E-01  1.26931141E+00
   4.10000000E-01  4.55248675E-01  1.25316411E+00
   4.20000000E-01  4.67696282E-01  1.23623088E+00
   4.30000000E-01  4.79970849E-01  1.21856444E+00
   4.40000000E-01  4.92065295E-01  1.20021515E+00
   4.50000000E-01  5.03973036E-01  1.18123117E+00
   4.60000000E-01  5.15687957E-01  1.16165855E+00
   4.70000000E-01  5.27204392E-01  1.14154130E+00
   4.80000000E-01  5.38517108E-01  1.12092149E+00
   4.90000000E-01  5.49621281E-01  1.09983930E+00
   5.00000000E-01  5.60512481E-01  1.07833312E+00
   5.10000000E-01  5.71186652E-01  1.05643959E+00
   5.20000000E-01  5.81640098E-01  1.03419367E+00
   5.30000000E-01  5.91869462E-01  1.01162874E+00
   5.40000000E-01  6.01871716E-01  9.88776573E-01
   5.50000000E-01  6.11644138E-01  9.65667461E-01
   5.60000000E-01  6.21184305E-01  9.42330241E-01
   5.70000000E-01  6.30490074E-01  9.18792359E-01
   5.80000000E-01  6.39559570E-01  8.95079915E-01
   5.90000000E-01  6.48391173E-01  8.71217691E-01
   6.00000000E-01  6.56983503E-01  8.47229221E-01
   6.10000000E-01  6.65335411E-01  8.23136833E-01
   6.20000000E-01  6.73445964E-01  7.98961666E-01
   6.30000000E-01  6.81314435E-01  7.74723761E-01
   6.40000000E-01  6.88940293E-01  7.50442066E-01
   6.50000000E-01  6.96323190E-01  7.26134490E-01
   6.60000000E-01  7.03462953E-01  7.01817954E-01
   6.70000000E-01  7.10359573E-01  6.77508401E-01
   6.80000000E-01  7.17013195E-01  6.53220851E-01
   6.90000000E-01  7.23424111E-01  6.28969446E-01
   7.00000000E-01  7.29592749E-01  6.04767464E-01
   7.10000000E-01  7.35519666E-01  5.80627384E-01
   7.20000000E-01  7.41205542E-01  5.56560893E-01
   7.30000000E-01  7.46651166E-01  5.32578931E-01
   7.40000000E-01  7.51857436E-01  5.08691730E-01
   7.50000000E-01  7.56825348E-01  4.84908813E-01
   7.60000000E-01  7.61555990E-01  4.61239086E-01
   7.70000000E-01  7.66050535E-01  4.37690802E-01
   7.80000000E-01  7.70310236E-01  4.14271628E-01
   7.90000000E-01  7.74336421E-01  3.90988675E-01
   8.00000000E-01  7.78130486E-01  3.67848486E-01
   8.10000000E-01  7.81693887E-01  3.44857105E-01
   8.20000000E-01  7.85028142E-01  3.22020098E-01
   8.30000000E-01  7.88134821E-01  2.99342561E-01
   8.40000000E-01  7.91015541E-01  2.76829137E-01
   8.50000000E-01  7.93671965E-01  2.54484061E-01
   8.60000000E-01  7.96105796E-01  2.32311173E-01
   8.70000000E-01  7.98318774E-01  2.10313934E-01
   8.80000000E-01  8.00312671E-01  1.88495453E-01
   8.90000000E-01  8.02089288E-01  1.66858512E-01
   9.00000000E-01  8.03650454E-01  1.45405569E-01
   9.10000000E-01  8.04998020E-01  1.24138791E-01
   9.20000000E-01  8.06133857E-01  1.03060056E-01
   9.30000000E-01  8.07059853E-01  8.21709953E-02
   9.40000000E-01  8.07777914E-01  6.14729847E-02
   9.50000000E-01  8.08289954E-01  4.09671695E-02
   9.60000000E-01  8.08597901E-01  2.06544961E-02
   9.70000000E-01  8.08703690E-01  5.35683505E-04
   9.80000000E-01  8.08609263E-01 -1.93887225E-02
   9.90000000E-01  8.08316565E-01 -3.91183430E-02
   1.00000000E+00  8.07827546E-01 -5.86529626E-02
   1.01000000E+00  8.07144156E-01 -7.79925194E-02
   1.02000000E+00  8.06268345E-01 -9.71370784E-02
   1.03000000E+00  8.05202063E-01 -1.16086847E-01
   1.04000000E+00  8.03947257E-01 -1.34842113E-01
   1.05000000E+00  8.02505868E-01 -1.53403344E-01
   1.06000000E+00  8.00879835E-01 -1.71771028E-01
   1.07000000E+00  7.99071091E-01 -1.89945767E-01
   1.08000000E+00  7.97081561E-01 -2.07928238E-01
   1.09000000E+00  7.94913164E-01 -2.25719191E-01
   1.10000000E+00  7.92567813E-01 -2.43319431E-01
   1.11000000E+00  7.90047408E-01 -2.60729823E-01
   1.12000000E+00  7.87353846E-01 -2.77951276E-01
   1.13000000E+00  7.84489010E-01 -2.94984734E-01
   1.14000000E+00  7.81454775E-01 -3.11831181E-01
   1.15000000E+00  7.78253006E-01 -3.28491627E-01
   1.16000000E+00  7.74885559E-01 -3.44967099E-01
   1.17000000E+00  7.71354277E-01 -3.61258644E-01
   1.18000000E+00  7.67660995E-01 -3.77367316E-01
   1.19000000E+00  7.63807537E-01 -3.93294176E-01
   1.20000000E+00  7.59795714E-01 -4.09040290E-01
   1.21000000E+00  7.55627330E-01 -4.24606713E-01
   1.22000000E+00  7.51304175E-01 -4.39994496E-01
   1.23000000E+00  7.46828032E-01 -4.55204683E-01
   1.24000000E+00  7.42200670E-01 -4.70238294E-01
   1.25000000E+00  7.37423851E-01 -4.85096339E-01
   1.26000000E+00  7.32499326E-01 -4.99779802E-01
   1.27000000E+00  7.27428834E-01 -5.14289645E-01
   1.28000000E+00  7.22214108E-01 -5.28626796E-01
   1.29000000E+00  7.16856871E-01 -5.42792162E-01
   1.30000000E+00  7.11358835E-01 -5.56786612E-01
   1.31000000E+00  7.05721705E-01 -5.70610983E-01
   1.32000000E+00  6.99947179E-01 -5.84266074E-01
   1.33000000E+00  6.94036946E-01 -5.97752646E-01
   1.34000000E+00  6.87992686E-01 -6.11071422E-01
   1.35000000E+00  6.81816074E-01 -6.24223080E-01
   1.36000000E+00  6.75508779E-01 -6.37208258E-01
   1.37000000E+00  6.69072462E-01 -6.50027541E-01
   1.38000000E+00  6.62508779E-01 -6.62681479E-01
   1.39000000E+00  6.55819382E-01 -6.75170575E-01
   1.40000000E+00  6.49005916E-01 -6.87495275E-01
   1.41000000E+00  6.42070023E-01 -6.99655984E-01
   1.42000000E+00  6.35013342E-01 -7.11653058E-01
   1.43000000E+00  6.27837506E-01 -7.23486800E-01
   1.44000000E+00  6.20544149E-01 -7.35157467E-01
   1.45000000E+00  6.13134900E-01 -7.46665264E-01
   1.46000000E+00  6.05611386E-01 -7.58010342E-01
   1.47000000E+00  5.97975235E-01 -7.69192806E-01
   1.48000000E+00  5.90228072E-01 -7.80212707E-01
   1.49000000E+00  5.82371523E-01 -7.91070051E-01
   1.50000000E+00  5.74407213E-01 -8.01764786E-01
   1.51000000E+00  5.66336769E-01 -8.12296813E-01
   1.52000000E+00  5.58161820E-01 -8.22665982E-01
   1.53000000E+00  5.49883993E-01 -8.32872093E-01
   1.54000000E+00  5.41504922E-01 -8.42914898E-01
   1.55000000E+00  5.33026241E-01 -8.52794096E-01
   1.56000000E+00  5.24449587E-01 -8.62509340E-01
   1.57000000E+00  5.15776602E-01 -8.72060237E-01
   1.58000000E+00  5.07008931E-01 -8.81446342E-01
   1.59000000E+00  4.98148226E-01 -8.90667168E-01
   1.60000000E+00  4.89196141E-01 -8.99722177E-01
   1.61000000E+00  4.80154337E-01 -9.08610790E-01
   1.62000000E+00  4.71024482E-01 -9.17332380E-01
   1.63000000E+00  4.61808248E-01 -9.25886279E-01
   1.64000000E+00  4.52507317E-01 -9.34271776E-01
   1.65000000E+00  4.43123377E-01 -9.42488118E-01
   1.66000000E+00  4.33658122E-01 -9.50534512E-01
   1.67000000E+00  4.24113256E-01 -9.58410125E-01
   1.68000000E+00  4.14490491E-01 -9.66114086E-01
   1.69000000E+00  4.04791549E-01 -9.73645488E-01
   1.70000000E+00  3.95018160E-01 -9.81003383E-01
   1.71000000E+00  3.85172063E-01 -9.88186795E-01
   1.72000000E+00  3.75255009E-01 -9.95194709E-01
   1.73000000E+00  3.65268757E-01 -1.00202608E+00
   1.74000000E+00  3.55215079E-01 -1.00867983E+00
   1.75000000E+00  3.45095757E-01 -1.01515486E+00
   1.76000000E+00  3.34912582E-01 -1.02145002E+00
   1.77000000E+00  3.24667360E-01 -1.02756416E+00
   1.78000000E+00  3.14361906E-01 -1.03349609E+00
   1.79000000E+00  3.03998049E-01 -1.03924460E+00
   1.80000000E+00  2.93577629E-01 -1.04480845E+00
   1.81000000E+00  2.83102500E-01 -1.05018639E+00
   1.82000000E+00  2.72574525E-01 -1.05537715E+00
   1.83000000E+00  2.61995585E-01 -1.06037941E+00
   1.84000000E+00  2.51367570E-01 -1.06519189E+00
   1.85000000E+00  2.40692384E-01 -1.06981324E+00
   1.86000000E+00  2.29971947E-01 -1.07424213E+00
   1.87000000E+00  2.19208188E-01 -1.07847720E+00
   1.88000000E+00  2.08403053E-01 -1.08251710E+00
   1.89000000E+00  1.97558501E-01 -1.08636045E+00
   1.90000000E+00  1.86676504E-01 -1.09000586E+00
   1.91000000E+00  1.75759048E-01 -1.09345196E+00
   1.92000000E+00  1.64808134E-01 -1.09669735E+00
   1.93000000E+00  1.53825775E-01 -1.09974064E+00
   1.94000000E+00  1.42813999E-01 -1.10258044E+00
   1.95000000E+00  1.31774849E-01 -1.10521535E+00
   1.96000000E+00  1.20710380E-01 -1.10764397E+00
   1.97000000E+00  1.09622662E-01 -1.10986492E+00
   1.98000000E+00  9.85137782E-02 -1.11187683E+00
   1.99000000E+00  8.73858266E-02 -1.11367830E+00
   2.00000000E+00  7.62409181E-02 -1.11526798E+00
   2.01000000E+00  6.50811775E-02 -1.11664451E+00
   2.02000000E+00  5.39087429E-02 -1.11780654E+00
   2.03000000E+00  4.27257661E-02 -1.11875275E+00
   2.04000000E+00  3.15344118E-02 -1.11948181E+00
   2.05000000E+00  2.03368581E-02 -1.11999242E+00
   2.06000000E+00  9.13529581E-03 -1.12028331E+00
   2.07000000E+00 -2.06807155E-03 -1.12035322E+00
   2.08000000E+00 -1.32710279E-02 -1.12020090E+00
   2.09000000E+00 -2.44713506E-02 -1.11982706E+00
   2.10000000E+00 -3.56668421E-02 -1.11923512E+00
   2.11000000E+00 -4.68553356E-02 -1.11842795E+00
   2.12000000E+00 -5.80346930E-02 -1.11740837E+00
   2.13000000E+00 -6.92028042E-02 -1.11617917E+00
   2.14000000E+00 -8.03575869E-02 -1.11474311E+00
   2.15000000E+00 -9.14969860E-02 -1.11310291E+00
   2.16000000E+00 -1.02618974E-01 -1.11126126E+00
   2.17000000E+00 -1.13721549E-01 -1.10922080E+00
   2.18000000E+00 -1.24802736E-01 -1.10698416E+00
   2.19000000E+00 -1.35860586E-01 -1.10455392E+00
   2.20000000E+00 -1.46893177E-01 -1.10193264E+00
   2.21000000E+00 -1.57898611E-01 -1.09912284E+00
   2.22000000E+00 -1.68875014E-01 -1.09612701E+00
   2.23000000E+00 -1.79820539E-01 -1.09294762E+00
   2.24000000E+00 -1.90733363E-01 -1.08958710E+00
   2.25000000E+00 -2.01611685E-01 -1.08604784E+00
   2.26000000E+00 -2.12453732E-01 -1.08233222E+00
   2.27000000E+00 -2.23257750E-01 -1.07844260E+00
   2.28000000E+00 -2.34022011E-01 -1.07438127E+00
   2.29000000E+00 -2.44744811E-01 -1.07015054E+00
   2.30000000E+00 -2.55424465E-01 -1.06575266E+00
   2.31000000E+00 -2.66059314E-01 -1.06118989E+00
   2.32000000E+00 -2.76647720E-01 -1.05646442E+00
   2.33000000E+00 -2.87188067E-01 -1.05157844E+00
   2.34000000E+00 -2.97678761E-01 -1.04653413E+00
   2.35000000E+00 -3.08118229E-01 -1.04133361E+00
   2.36000000E+00 -3.18504920E-01 -1.03597901E+00
   2.37000000E+00 -3.28837303E-01 -1.03047243E+00
   2.38000000E+00 -3.39113869E-01 -1.02481593E+00
   2.39000000E+00 -3.49333129E-01 -1.01901157E+00
   2.40000000E+00 -3.59493614E-01 -1.01306137E+00
   2.41000000E+00 -3.69593877E-01 -1.00696735E+00
   2.42000000E+00 -3.79632488E-01 -1.00073151E+00
   2.43000000E+00 -3.89608041E-01 -9.94355807E-01
   2.44000000E+00 -3.99519145E-01 -9.87842203E-01
   2.45000000E+00 -4.09364432E-01 -9.81192635E-01
   2.46000000E+00 -4.19142551E-01 -9.74409019E-01
   2.47000000E+00 -4.28852171E-01 -9.67493259E-01
   2.48000000E+00 -4.38491982E-01 -9.60447242E-01
   2.49000000E+00 -4.48060688E-01 -9.53272837E-01
   2.50000000E+00 -4.57557017E-01 -9.45971899E-01
   2.51000000E+00 -4.66979711E-01 -9.38546269E-01
   2.52000000E+00 -4.76327533E-01 -9.30997774E-01
   2.53000000E+00 -4.85599263E-01 -9.23328224E-01
   2.54000000E+00 -4.94793700E-01 -9.15539419E-01
   2.55000000E+00 -5.03909659E-01 -9.07633146E-01
   2.56000000E+00 -5.12945977E-01 -8.99611178E-01
   2.57000000E+00 -5.21901503E-01 -8.91475277E-01
   2.58000000E+00 -5.30775108E-01 -8.83227193E-01
   2.59000000E+00 -5.39565679E-01 -8.74868665E-01
   2.60000000E+00 -5.48272119E-01 -8.66401423E-01
   2.61000000E+00 -5.56893351E-01 -8.57827183E-01
   2.62000000E+00 -5.65428312E-01 -8.49147655E-01
   2.63000000E+00 -5.73875959E-01 -8.40364537E-01
   2.64000000E+00 -5.82235263E-01 -8.31479518E-01
   2.65000000E+00 -5.90505215E-01 -8.22494280E-01
   2.66000000E+00 -5.98684820E-01 -8.13410497E-01
   2.67000000E+00 -6.06773102E-01 -8.04229830E-01
   2.68000000E+00 -6.14769099E-01 -7.94953937E-01
   2.69000000E+00 -6.22671869E-01 -7.85584468E-01
   2.70000000E+00 -6.30480482E-01 -7.76123065E-01
   2.71000000E+00 -6.38194029E-01 -7.66571364E-01
   2.72000000E+00 -6.45811614E-01 -7.56930992E-01
   2.73000000E+00 -6.53332359E-01 -7.47203573E-01
   2.74000000E+00 -6.60755401E-01 -7.37390723E-01
   2.75000000E+00 -6.68079894E-01 -7.27494054E-01
   2.76000000E+00 -6.75305008E-01 -7.17515170E-01
   2.77000000E+00 -6.82429928E-01 -7.07455674E-01
   2.78000000E+00 -6.89453858E-01 -6.97317161E-01
   2.79000000E+00 -6.96376014E-01 -6.87101220E-01
   2.80000000E+00 -7.03195629E-01 -6.76809438E-01
   2.81000000E+00 -7.09911955E-01 -6.66443396E-01
   2.82000000E+00 -7.16524255E-01 -6.56004674E-01
   2.83000000E+00 -7.23031811E-01 -6.45494845E-01
   2.84000000E+00 -7.29433920E-01 -6.34915479E-01
   2.85000000E+00 -7.35729894E-01 -6.24268144E-01
   2.86000000E+00 -7.41919062E-01 -6.13554401E-01
   2.87000000E+00 -7.48000766E-01 -6.02775811E-01
   2.88000000E+00 -7.53974367E-01 -5.91933932E-01
   2.89000000E+00 -7.59839239E-01 -5.81030319E-01
   2.90000000E+00 -7.65594773E-01 -5.70066520E-01
   2.91000000E+00 -7.71240374E-01 -5.59044087E-01
   2.92000000E+00 -7.76775464E-01 -5.47964563E-01
   2.93000000E+00 -7.82199480E-01 -5.36829493E-01
   2.94000000E+00 -7.87511874E-01 -5.25640418E-01
   2.95000000E+00 -7.92712114E-01 -5.14398878E-01
   2.96000000E+00 -7.97799682E-01 -5.03106408E-01
   2.97000000E+00 -8.02774077E-01 -4.91764543E-01
   2.98000000E+00 -8.07634813E-01 -4.80374816E-01
   2.99000000E+00 -8.12381419E-01 -4.68938757E-01
   3.00000000E+00 -8.17013439E-01 -4.57457896E-01
   3.01000000E+00 -8.21530433E-01 -4.45933757E-01
   3.02000000E+00 -8.25931975E-01 -4.34367866E-01
   3.03000000E+00 -8.30217656E-01 -4.22761746E-01
   3.04000000E+00 -8.34387081E-01 -4.11116918E-01
   3.05000000E+00 -8.38439870E-01 -3.99434903E-01
   3.06000000E+00 -8.42375660E-01 -3.87717215E-01
   3.07000000E+00 -8.46194101E-01 -3.75965375E-01
   3.08000000E+00 -8.49894859E-01 -3.64180893E-01
   3.09000000E+00 -8.53477615E-01 -3.52365285E-01
   3.10000000E+00 -8.56942066E-01 -3.40520058E-01
   3.11000000E+00 -8.60287922E-01 -3.28646723E-01
   3.12000000E+00 -8.63514911E-01 -3.16746787E-01
   3.13000000E+00 -8.66622774E-01 -3.04821763E-01
   3.14000000E+00 -8.69611268E-01 -2.92873138E-01
   3.15000000E+00 -8.72480164E-01 -2.80902428E-01
   3.16000000E+00 -8.75229248E-01 -2.68911125E-01
   3.17000000E+00 -8.77858322E-01 -2.56900729E-01
   3.18000000E+00 -8.80367204E-01 -2.44872736E-01
   3.19000000E+00 -8.82755723E-01 -2.32828642E-01
   3.20000000E+00 -8.85023728E-01 -2.20769940E-01
   3.21000000E+00 -8.87171078E-01 -2.08698119E-01
   3.22000000E+00 -8.89197651E-01 -1.96614665E-01
   3.23000000E+00 -8.91103338E-01 -1.84521063E-01
   3.24000000E+00 -8.92888044E-01 -1.72418799E-01
   3.25000000E+00 -8.94551690E-01 -1.60309351E-01
   3.26000000E+00 -8.96094212E-01 -1.48194196E-01
   3.27000000E+00 -8.97515560E-01 -1.36074811E-01
   3.28000000E+00 -8.98815699E-01 -1.23952671E-01
   3.29000000E+00 -8.99994609E-01 -1.11829245E-01
   3.30000000E+00 -9.01052284E-01 -9.97059996E-02
   3.31000000E+00 -9.01988734E-01 -8.75843992E-02
   3.32000000E+00 -9.02803983E-01 -7.54659051E-02
   3.33000000E+00 -9.03498068E-01 -6.33519762E-02
   3.34000000E+00 -9.04071042E-01 -5.12440680E-02
   3.35000000E+00 -9.04522974E-01 -3.91436342E-02
   3.36000000E+00 -9.04853945E-01 -2.70521211E-02
   3.37000000E+00 -9.05064051E-01 -1.49709766E-02
   3.38000000E+00 -9.05153404E-01 -2.90164189E-03
   3.39000000E+00 -9.05122128E-01  9.15444860E-03
   3.40000000E+00 -9.04970364E-01  2.11958589E-02
   3.41000000E+00 -9.04698264E-01  3.32211616E-02
   3.42000000E+00 -9.04305999E-01  4.52289277E-02
   3.43000000E+00 -9.03793749E-01  5.72177355E-02
   3.44000000E+00 -9.03161712E-01  6.91861703E-02
   3.45000000E+00 -9.02410098E-01  8.11328169E-02
   3.46000000E+00 -9.01539133E-01  9.30562677E-02
   3.47000000E+00 -9.00549055E-01  1.04955119E-01
   3.48000000E+00 -8.99440117E-01  1.16827969E-01
   3.49000000E+00 -8.98212587E-01  1.28673429E-01
   3.50000000E+00 -8.96866745E-01  1.40490110E-01
   3.51000000E+00 -8.95402885E-01  1.52276622E-01
   3.52000000E+00 -8.93821317E-01  1.64031593E-01
   3.53000000E+00 -8.92122363E-01  1.75753648E-01
   3.54000000E+00 -8.90306359E-01  1.87441417E-01
   3.55000000E+00 -8.88373654E-01  1.99093544E-01
   3.56000000E+00 -8.86324611E-01  2.10708671E-01
   3.57000000E+00 -8.84159608E-01  2.22285447E-01
   3.58000000E+00 -8.81879035E-01  2.33822528E-01
   3.59000000E+00 -8.79483294E-01  2.45318577E-01
   3.60000000E+00 -8.76972804E-01  2.56772264E-01
   3.61000000E+00 -8.74347995E-01  2.68182263E-01
   3.62000000E+00 -8.71609309E-01  2.79547257E-01
   3.63000000E+00 -8.68757204E-01  2.90865934E-01
   3.64000000E+00 -8.65792149E-01  3.02136990E-01
   3.65000000E+00 -8.62714627E-01  3.13359128E-01
   3.66000000E+00 -8.59525134E-01  3.24531055E-01
   3.67000000E+00 -8.56224178E-01  3.35651493E-01
   3.68000000E+00 -8.52812280E-01  3.46719165E-01
   3.69000000E+00 -8.49289974E-01  3.57732804E-01
   3.70000000E+00 -8.45657808E-01  3.68691148E-01
   3.71000000E+00 -8.41916340E-01  3.79592947E-01
   3.72000000E+00 -8.38066142E-01  3.90436959E-01
   3.73000000E+00 -8.34107798E-01  4.01221942E-01
   3.74000000E+00 -8.30041904E-01  4.11946673E-01
   3.75000000E+00 -8.25869069E-01  4.22609931E-01
   3.76000000E+00 -8.21589914E-01  4.33210504E-01
   3.77000000E+00 -8.17205072E-01  4.43747192E-01
   3.78000000E+00 -8.12715187E-01  4.54218803E-01
   3.79000000E+00 -8.08120917E-01  4.64624149E-01
   3.80000000E+00 -8.03422929E-01  4.74962055E-01
   3.81000000E+00 -7.98621904E-01  4.85231354E-01
   3.82000000E+00 -7.93718534E-01  4.95430892E-01
   3.83000000E+00 -7.88713523E-01  5.05559519E-01
   3.84000000E+00 -7.83607584E-01  5.15616100E-01
   3.85000000E+00 -7.78401445E-01  5.25599503E-01
   3.86000000E+00 -7.73095842E-01  5.35508612E-01
   3.87000000E+00 -7.67691524E-01  5.45342317E-01
   3.88000000E+00 -7.62189251E-01  5.55099519E-01
   3.89000000E+00 -7.56589792E-01  5.64779126E-01
   3.90000000E+00 -7.50893930E-01  5.74380067E-01
