 # Radial wave functions calculated by RADIAL.
 # **** Schrodinger Eq. Numerical potential.
 #      Input potential file: potential_1A1.dat   
 #      Free state: E= 1.359724E+00, L=   0  (EPS= 1.0E-15)
 #        Inner phase shift= 2.953326759180132E+00
 #      Coulomb phase shift= 2.742924599946652E-01  (ETA=-6.064145E-01)
 #      Matching radius: RAD(  847)= 8.460000000000001E+00
 #       R              P(R)            Q(R)
   0.00000000E+00  0.00000000E+00  0.00000000E+00
   1.00000000E-02  7.52092701E-02  7.06436867E+00
   2.00000000E-02  1.41506331E-01  6.20564805E+00
   3.00000000E-02  1.99527624E-01  5.40855135E+00
   4.00000000E-02  2.49869781E-01  4.66918826E+00
   5.00000000E-02  2.93091496E-01  3.98386408E+00
   6.00000000E-02  3.29715535E-01  3.34908834E+00
   7.00000000E-02  3.60230791E-01  2.76157763E+00
   8.00000000E-02  3.85094353E-01  2.21825329E+00
   9.00000000E-02  4.04733524E-01  1.71623564E+00
   1.00000000E-01  4.19547773E-01  1.25283635E+00
   1.10000000E-01  4.29910605E-01  8.25548945E-01
   1.20000000E-01  4.36171325E-01  4.32038800E-01
   1.30000000E-01  4.38656710E-01  7.01323089E-02
   1.40000000E-01  4.37672558E-01 -2.62193649E-01
   1.50000000E-01  4.33505147E-01 -5.66822196E-01
   1.60000000E-01  4.26422581E-01 -8.45506648E-01
   1.70000000E-01  4.16676038E-01 -1.09988005E+00
   1.80000000E-01  4.04500932E-01 -1.33146447E+00
   1.90000000E-01  3.90117970E-01 -1.54167955E+00
   2.00000000E-01  3.73734145E-01 -1.73185044E+00
   2.10000000E-01  3.55543639E-01 -1.90321516E+00
   2.20000000E-01  3.35728661E-01 -2.05693150E+00
   2.30000000E-01  3.14460217E-01 -2.19408329E+00
   2.40000000E-01  2.91898819E-01 -2.31568609E+00
   2.50000000E-01  2.68195143E-01 -2.42269257E+00
   2.60000000E-01  2.43490634E-01 -2.51599718E+00
   2.70000000E-01  2.17918064E-01 -2.59644065E+00
   2.80000000E-01  1.91602050E-01 -2.66481396E+00
   2.90000000E-01  1.64659531E-01 -2.72186194E+00
   3.00000000E-01  1.37200218E-01 -2.76828665E+00
   3.10000000E-01  1.09326998E-01 -2.80475035E+00
   3.20000000E-01  8.11363258E-02 -2.83187830E+00
   3.30000000E-01  5.27185781E-02 -2.85026122E+00
   3.40000000E-01  2.41583865E-02 -2.86045760E+00
   3.50000000E-01 -4.46504968E-03 -2.86299580E+00
   3.60000000E-01 -3.30776722E-02 -2.85837595E+00
   3.70000000E-01 -6.16102901E-02 -2.84707170E+00
   3.80000000E-01 -8.99983233E-02 -2.82953181E+00
   3.90000000E-01 -1.18181561E-01 -2.80618165E+00
   4.00000000E-01 -1.46103935E-01 -2.77742452E+00
   4.10000000E-01 -1.73713305E-01 -2.74364292E+00
   4.20000000E-01 -2.00961257E-01 -2.70519971E+00
   4.30000000E-01 -2.27802911E-01 -2.66243915E+00
   4.40000000E-01 -2.54196740E-01 -2.61568792E+00
   4.50000000E-01 -2.80104402E-01 -2.56525601E+00
   4.60000000E-01 -3.05490573E-01 -2.51143759E+00
   4.70000000E-01 -3.30322797E-01 -2.45451182E+00
   4.80000000E-01 -3.54571336E-01 -2.39474357E+00
   4.90000000E-01 -3.78209033E-01 -2.33238417E+00
   5.00000000E-01 -4.01211179E-01 -2.26767201E+00
   5.10000000E-01 -4.23555386E-01 -2.20083320E+00
   5.20000000E-01 -4.45221470E-01 -2.13208213E+00
   5.30000000E-01 -4.66191333E-01 -2.06162204E+00
   5.40000000E-01 -4.86448857E-01 -1.98964554E+00
   5.50000000E-01 -5.05979798E-01 -1.91633509E+00
   5.60000000E-01 -5.24771689E-01 -1.84186346E+00
   5.70000000E-01 -5.42813743E-01 -1.76639422E+00
   5.80000000E-01 -5.60096765E-01 -1.69008212E+00
   5.90000000E-01 -5.76613065E-01 -1.61307352E+00
   6.00000000E-01 -5.92356376E-01 -1.53550675E+00
   6.10000000E-01 -6.07321776E-01 -1.45751252E+00
   6.20000000E-01 -6.21505613E-01 -1.37921421E+00
   6.30000000E-01 -6.34905435E-01 -1.30072822E+00
   6.40000000E-01 -6.47519919E-01 -1.22216435E+00
   6.50000000E-01 -6.59348808E-01 -1.14362603E+00
   6.60000000E-01 -6.70392850E-01 -1.06521066E+00
   6.70000000E-01 -6.80653737E-01 -9.87009860E-01
   6.80000000E-01 -6.90134050E-01 -9.09109762E-01
   6.90000000E-01 -6.98837205E-01 -8.31591262E-01
   7.00000000E-01 -7.06767401E-01 -7.54530253E-01
   7.10000000E-01 -7.13929572E-01 -6.77997869E-01
   7.20000000E-01 -7.20329343E-01 -6.02060708E-01
   7.30000000E-01 -7.25972979E-01 -5.26781049E-01
   7.40000000E-01 -7.30867350E-01 -4.52217082E-01
   7.50000000E-01 -7.35019887E-01 -3.78423068E-01
   7.60000000E-01 -7.38438546E-01 -3.05449557E-01
   7.70000000E-01 -7.41131770E-01 -2.33343562E-01
   7.80000000E-01 -7.43108455E-01 -1.62148724E-01
   7.90000000E-01 -7.44377917E-01 -9.19055033E-02
   8.00000000E-01 -7.44949862E-01 -2.26513266E-02
   8.10000000E-01 -7.44834356E-01  4.55792687E-02
   8.20000000E-01 -7.44041795E-01  1.12754494E-01
   8.30000000E-01 -7.42582882E-01  1.78845129E-01
   8.40000000E-01 -7.40468597E-01  2.43824415E-01
   8.50000000E-01 -7.37710180E-01  3.07667941E-01
   8.60000000E-01 -7.34319099E-01  3.70353492E-01
   8.70000000E-01 -7.30307037E-01  4.31860940E-01
   8.80000000E-01 -7.25685868E-01  4.92172142E-01
   8.90000000E-01 -7.20467636E-01  5.51270830E-01
   9.00000000E-01 -7.14664541E-01  6.09142503E-01
   9.10000000E-01 -7.08288919E-01  6.65774332E-01
   9.20000000E-01 -7.01353225E-01  7.21155065E-01
   9.30000000E-01 -6.93870021E-01  7.75274943E-01
   9.40000000E-01 -6.85851957E-01  8.28125601E-01
   9.50000000E-01 -6.77311763E-01  8.79700015E-01
   9.60000000E-01 -6.68262230E-01  9.29992404E-01
   9.70000000E-01 -6.58716204E-01  9.78998155E-01
   9.80000000E-01 -6.48686568E-01  1.02671378E+00
   9.90000000E-01 -6.38186237E-01  1.07313681E+00
   1.00000000E+00 -6.27228145E-01  1.11826578E+00
   1.01000000E+00 -6.15825237E-01  1.16210010E+00
   1.02000000E+00 -6.03990458E-01  1.20464008E+00
   1.03000000E+00 -5.91736746E-01  1.24588681E+00
   1.04000000E+00 -5.79077026E-01  1.28584218E+00
   1.05000000E+00 -5.66024199E-01  1.32450874E+00
   1.06000000E+00 -5.52591137E-01  1.36188971E+00
   1.07000000E+00 -5.38790677E-01  1.39798897E+00
   1.08000000E+00 -5.24635615E-01  1.43281093E+00
   1.09000000E+00 -5.10138699E-01  1.46636057E+00
   1.10000000E+00 -4.95312626E-01  1.49864337E+00
   1.11000000E+00 -4.80170035E-01  1.52966527E+00
   1.12000000E+00 -4.64723503E-01  1.55943265E+00
   1.13000000E+00 -4.48985541E-01  1.58795230E+00
   1.14000000E+00 -4.32968592E-01  1.61523138E+00
   1.15000000E+00 -4.16685024E-01  1.64127742E+00
   1.16000000E+00 -4.00147128E-01  1.66609826E+00
   1.17000000E+00 -3.83367115E-01  1.68970204E+00
   1.18000000E+00 -3.66357116E-01  1.71209718E+00
   1.19000000E+00 -3.49129172E-01  1.73329237E+00
   1.20000000E+00 -3.31695239E-01  1.75329652E+00
   1.21000000E+00 -3.14067181E-01  1.77211879E+00
   1.22000000E+00 -2.96256771E-01  1.78976851E+00
   1.23000000E+00 -2.78275688E-01  1.80625521E+00
   1.24000000E+00 -2.60135511E-01  1.82158861E+00
   1.25000000E+00 -2.41847727E-01  1.83577858E+00
   1.26000000E+00 -2.23423718E-01  1.84883512E+00
   1.27000000E+00 -2.04874769E-01  1.86076838E+00
   1.28000000E+00 -1.86212060E-01  1.87158864E+00
   1.29000000E+00 -1.67446671E-01  1.88130629E+00
   1.30000000E+00 -1.48589575E-01  1.88993183E+00
   1.31000000E+00 -1.29651640E-01  1.89747584E+00
   1.32000000E+00 -1.10643628E-01  1.90394901E+00
   1.33000000E+00 -9.15761932E-02  1.90936211E+00
   1.34000000E+00 -7.24598829E-02  1.91372597E+00
   1.35000000E+00 -5.33051347E-02  1.91705153E+00
   1.36000000E+00 -3.41222768E-02  1.91934975E+00
   1.37000000E+00 -1.49215273E-02  1.92063169E+00
   1.38000000E+00  4.28700632E-03  1.92090844E+00
   1.39000000E+00  2.34933281E-02  1.92019118E+00
   1.40000000E+00  4.26875538E-02  1.91849110E+00
   1.41000000E+00  6.18599117E-02  1.91581948E+00
   1.42000000E+00  8.10007426E-02  1.91218762E+00
   1.43000000E+00  1.00100501E-01  1.90760687E+00
   1.44000000E+00  1.19149755E-01  1.90208865E+00
   1.45000000E+00  1.38139187E-01  1.89564440E+00
   1.46000000E+00  1.57059595E-01  1.88828559E+00
   1.47000000E+00  1.75901889E-01  1.88002378E+00
   1.48000000E+00  1.94657099E-01  1.87087052E+00
   1.49000000E+00  2.13316367E-01  1.86083744E+00
   1.50000000E+00  2.31870954E-01  1.84993620E+00
   1.51000000E+00  2.50312236E-01  1.83817850E+00
   1.52000000E+00  2.68631708E-01  1.82557610E+00
   1.53000000E+00  2.86820981E-01  1.81214078E+00
   1.54000000E+00  3.04871787E-01  1.79788439E+00
   1.55000000E+00  3.22775972E-01  1.78281881E+00
   1.56000000E+00  3.40525505E-01  1.76695598E+00
   1.57000000E+00  3.58112474E-01  1.75030789E+00
   1.58000000E+00  3.75529086E-01  1.73288658E+00
   1.59000000E+00  3.92767668E-01  1.71470413E+00
   1.60000000E+00  4.09820672E-01  1.69577270E+00
   1.61000000E+00  4.26680666E-01  1.67610449E+00
   1.62000000E+00  4.43340346E-01  1.65571175E+00
   1.63000000E+00  4.59792527E-01  1.63460681E+00
   1.64000000E+00  4.76030150E-01  1.61280206E+00
   1.65000000E+00  4.92046277E-01  1.59030992E+00
   1.66000000E+00  5.07834099E-01  1.56714292E+00
   1.67000000E+00  5.23386928E-01  1.54331364E+00
   1.68000000E+00  5.38698206E-01  1.51883470E+00
   1.69000000E+00  5.53761499E-01  1.49371884E+00
   1.70000000E+00  5.68570502E-01  1.46797884E+00
   1.71000000E+00  5.83119038E-01  1.44162755E+00
   1.72000000E+00  5.97401059E-01  1.41467790E+00
   1.73000000E+00  6.11410645E-01  1.38714292E+00
   1.74000000E+00  6.25142009E-01  1.35903568E+00
   1.75000000E+00  6.38589495E-01  1.33036935E+00
   1.76000000E+00  6.51747577E-01  1.30115718E+00
   1.77000000E+00  6.64610864E-01  1.27141249E+00
   1.78000000E+00  6.77174096E-01  1.24114869E+00
   1.79000000E+00  6.89432152E-01  1.21037926E+00
   1.80000000E+00  7.01380041E-01  1.17911779E+00
   1.81000000E+00  7.13012913E-01  1.14737794E+00
   1.82000000E+00  7.24326051E-01  1.11517344E+00
   1.83000000E+00  7.35314879E-01  1.08251812E+00
   1.84000000E+00  7.45974957E-01  1.04942590E+00
   1.85000000E+00  7.56301987E-01  1.01591078E+00
   1.86000000E+00  7.66291810E-01  9.81986840E-01
   1.87000000E+00  7.75940409E-01  9.47668259E-01
   1.88000000E+00  7.85243907E-01  9.12969289E-01
   1.89000000E+00  7.94198574E-01  8.77904274E-01
   1.90000000E+00  8.02800821E-01  8.42487644E-01
   1.91000000E+00  8.11047203E-01  8.06733905E-01
   1.92000000E+00  8.18934424E-01  7.70657656E-01
   1.93000000E+00  8.26459330E-01  7.34273574E-01
   1.94000000E+00  8.33618919E-01  6.97596418E-01
   1.95000000E+00  8.40410331E-01  6.60641027E-01
   1.96000000E+00  8.46830861E-01  6.23422319E-01
   1.97000000E+00  8.52877950E-01  5.85955290E-01
   1.98000000E+00  8.58549190E-01  5.48255014E-01
   1.99000000E+00  8.63842323E-01  5.10336631E-01
   2.00000000E+00  8.68755246E-01  4.72215363E-01
   2.01000000E+00  8.73286005E-01  4.33906494E-01
   2.02000000E+00  8.77432802E-01  3.95425383E-01
   2.03000000E+00  8.81193990E-01  3.56787445E-01
   2.04000000E+00  8.84568079E-01  3.18008167E-01
   2.05000000E+00  8.87553734E-01  2.79103089E-01
   2.06000000E+00  8.90149774E-01  2.40087811E-01
   2.07000000E+00  8.92355175E-01  2.00977986E-01
   2.08000000E+00  8.94169071E-01  1.61789252E-01
   2.09000000E+00  8.95591025E-01  1.22619921E-01
   2.10000000E+00  8.96621859E-01  8.35675558E-02
   2.11000000E+00  8.97262814E-01  4.46465237E-02
   2.12000000E+00  8.97515275E-01  5.87103478E-03
   2.13000000E+00  8.97380766E-01 -3.27449309E-02
   2.14000000E+00  8.96860954E-01 -7.11876177E-02
   2.15000000E+00  8.95957637E-01 -1.09443492E-01
   2.16000000E+00  8.94672751E-01 -1.47499246E-01
   2.17000000E+00  8.93008363E-01 -1.85341790E-01
   2.18000000E+00  8.90966669E-01 -2.22958259E-01
   2.19000000E+00  8.88549993E-01 -2.60336002E-01
   2.20000000E+00  8.85760786E-01 -2.97462587E-01
   2.21000000E+00  8.82601619E-01 -3.34325799E-01
   2.22000000E+00  8.79075188E-01 -3.70913638E-01
   2.23000000E+00  8.75184304E-01 -4.07214316E-01
   2.24000000E+00  8.70931897E-01 -4.43216258E-01
   2.25000000E+00  8.66321012E-01 -4.78908103E-01
   2.26000000E+00  8.61354806E-01 -5.14278701E-01
   2.27000000E+00  8.56036546E-01 -5.49317108E-01
   2.28000000E+00  8.50369607E-01 -5.84012590E-01
   2.29000000E+00  8.44357472E-01 -6.18354621E-01
   2.30000000E+00  8.38003727E-01 -6.52332886E-01
   2.31000000E+00  8.31312061E-01 -6.85937270E-01
   2.32000000E+00  8.24286261E-01 -7.19157867E-01
   2.33000000E+00  8.16930215E-01 -7.51984975E-01
   2.34000000E+00  8.09247905E-01 -7.84409095E-01
   2.35000000E+00  8.01243407E-01 -8.16420935E-01
   2.36000000E+00  7.92920891E-01 -8.48011399E-01
   2.37000000E+00  7.84284614E-01 -8.79171600E-01
   2.38000000E+00  7.75338922E-01 -9.09892849E-01
   2.39000000E+00  7.66088248E-01 -9.40166658E-01
   2.40000000E+00  7.56537108E-01 -9.69984742E-01
   2.41000000E+00  7.46690099E-01 -9.99339011E-01
   2.42000000E+00  7.36551900E-01 -1.02822158E+00
   2.43000000E+00  7.26127266E-01 -1.05662476E+00
   2.44000000E+00  7.15421028E-01 -1.08454106E+00
   2.45000000E+00  7.04438092E-01 -1.11196320E+00
   2.46000000E+00  6.93183435E-01 -1.13888407E+00
   2.47000000E+00  6.81662104E-01 -1.16529679E+00
   2.48000000E+00  6.69879215E-01 -1.19119465E+00
   2.49000000E+00  6.57839949E-01 -1.21657116E+00
   2.50000000E+00  6.45549551E-01 -1.24142001E+00
   2.51000000E+00  6.33013328E-01 -1.26573509E+00
   2.52000000E+00  6.20236648E-01 -1.28951050E+00
   2.53000000E+00  6.07224936E-01 -1.31274053E+00
   2.54000000E+00  5.93983674E-01 -1.33541964E+00
   2.55000000E+00  5.80518397E-01 -1.35754253E+00
   2.56000000E+00  5.66834695E-01 -1.37910405E+00
   2.57000000E+00  5.52938204E-01 -1.40009929E+00
   2.58000000E+00  5.38834612E-01 -1.42052350E+00
   2.59000000E+00  5.24529653E-01 -1.44037214E+00
   2.60000000E+00  5.10029103E-01 -1.45964087E+00
   2.61000000E+00  4.95338782E-01 -1.47832552E+00
   2.62000000E+00  4.80464552E-01 -1.49642215E+00
   2.63000000E+00  4.65412312E-01 -1.51392698E+00
   2.64000000E+00  4.50187997E-01 -1.53083645E+00
   2.65000000E+00  4.34797579E-01 -1.54714717E+00
   2.66000000E+00  4.19247060E-01 -1.56285597E+00
   2.67000000E+00  4.03542476E-01 -1.57795985E+00
   2.68000000E+00  3.87689889E-01 -1.59245601E+00
   2.69000000E+00  3.71695390E-01 -1.60634185E+00
   2.70000000E+00  3.55565094E-01 -1.61961496E+00
   2.71000000E+00  3.39305141E-01 -1.63227310E+00
   2.72000000E+00  3.22921689E-01 -1.64431426E+00
   2.73000000E+00  3.06420918E-01 -1.65573658E+00
   2.74000000E+00  2.89809026E-01 -1.66653844E+00
   2.75000000E+00  2.73092223E-01 -1.67671835E+00
   2.76000000E+00  2.56276736E-01 -1.68627507E+00
   2.77000000E+00  2.39368802E-01 -1.69520751E+00
   2.78000000E+00  2.22374670E-01 -1.70351478E+00
   2.79000000E+00  2.05300593E-01 -1.71119619E+00
   2.80000000E+00  1.88152834E-01 -1.71825122E+00
   2.81000000E+00  1.70937657E-01 -1.72467955E+00
   2.82000000E+00  1.53661332E-01 -1.73048104E+00
   2.83000000E+00  1.36330126E-01 -1.73565575E+00
   2.84000000E+00  1.18950306E-01 -1.74020390E+00
   2.85000000E+00  1.01528135E-01 -1.74412593E+00
   2.86000000E+00  8.40698721E-02 -1.74742244E+00
   2.87000000E+00  6.65817685E-02 -1.75009422E+00
   2.88000000E+00  4.90700668E-02 -1.75214225E+00
   2.89000000E+00  3.15409989E-02 -1.75356767E+00
   2.90000000E+00  1.40007842E-02 -1.75437184E+00
   2.91000000E+00 -3.54437212E-03 -1.75455627E+00
   2.92000000E+00 -2.10882811E-02 -1.75412266E+00
   2.93000000E+00 -3.86247715E-02 -1.75307289E+00
   2.94000000E+00 -5.61476919E-02 -1.75140902E+00
   2.95000000E+00 -7.36509123E-02 -1.74913328E+00
   2.96000000E+00 -9.11283260E-02 -1.74624809E+00
   2.97000000E+00 -1.08573851E-01 -1.74275602E+00
   2.98000000E+00 -1.25981433E-01 -1.73865984E+00
   2.99000000E+00 -1.43345044E-01 -1.73396249E+00
   3.00000000E+00 -1.60658689E-01 -1.72866707E+00
   3.01000000E+00 -1.77916403E-01 -1.72277685E+00
   3.02000000E+00 -1.95112255E-01 -1.71629529E+00
   3.03000000E+00 -2.12240349E-01 -1.70922599E+00
   3.04000000E+00 -2.29294828E-01 -1.70157273E+00
   3.05000000E+00 -2.46269871E-01 -1.69333947E+00
   3.06000000E+00 -2.63159698E-01 -1.68453032E+00
   3.07000000E+00 -2.79958572E-01 -1.67514953E+00
   3.08000000E+00 -2.96660798E-01 -1.66520156E+00
   3.09000000E+00 -3.13260727E-01 -1.65469100E+00
   3.10000000E+00 -3.29752758E-01 -1.64362259E+00
   3.11000000E+00 -3.46131336E-01 -1.63200124E+00
   3.12000000E+00 -3.62390957E-01 -1.61983203E+00
   3.13000000E+00 -3.78526168E-01 -1.60712016E+00
   3.14000000E+00 -3.94531569E-01 -1.59387100E+00
   3.15000000E+00 -4.10401815E-01 -1.58009008E+00
   3.16000000E+00 -4.26131617E-01 -1.56578306E+00
   3.17000000E+00 -4.41715742E-01 -1.55095574E+00
   3.18000000E+00 -4.57149017E-01 -1.53561410E+00
   3.19000000E+00 -4.72426330E-01 -1.51976423E+00
   3.20000000E+00 -4.87542628E-01 -1.50341236E+00
   3.21000000E+00 -5.02492925E-01 -1.48656488E+00
   3.22000000E+00 -5.17272296E-01 -1.46922830E+00
   3.23000000E+00 -5.31875883E-01 -1.45140927E+00
   3.24000000E+00 -5.46298895E-01 -1.43311457E+00
   3.25000000E+00 -5.60536612E-01 -1.41435112E+00
   3.26000000E+00 -5.74584379E-01 -1.39512594E+00
   3.27000000E+00 -5.88437615E-01 -1.37544622E+00
   3.28000000E+00 -6.02091812E-01 -1.35531924E+00
   3.29000000E+00 -6.15542534E-01 -1.33475240E+00
   3.30000000E+00 -6.28785419E-01 -1.31375324E+00
   3.31000000E+00 -6.41816183E-01 -1.29232940E+00
   3.32000000E+00 -6.54630617E-01 -1.27048865E+00
   3.33000000E+00 -6.67224593E-01 -1.24823885E+00
   3.34000000E+00 -6.79594058E-01 -1.22558800E+00
   3.35000000E+00 -6.91735043E-01 -1.20254417E+00
   3.36000000E+00 -7.03643658E-01 -1.17911556E+00
   3.37000000E+00 -7.15316099E-01 -1.15531047E+00
   3.38000000E+00 -7.26748641E-01 -1.13113730E+00
   3.39000000E+00 -7.37937646E-01 -1.10660453E+00
   3.40000000E+00 -7.48879561E-01 -1.08172075E+00
   3.41000000E+00 -7.59570920E-01 -1.05649464E+00
   3.42000000E+00 -7.70008342E-01 -1.03093496E+00
   3.43000000E+00 -7.80188537E-01 -1.00505058E+00
   3.44000000E+00 -7.90108301E-01 -9.78850425E-01
   3.45000000E+00 -7.99764523E-01 -9.52343514E-01
   3.46000000E+00 -8.09154179E-01 -9.25538943E-01
   3.47000000E+00 -8.18274340E-01 -8.98445887E-01
   3.48000000E+00 -8.27122166E-01 -8.71073589E-01
   3.49000000E+00 -8.35694912E-01 -8.43431360E-01
   3.50000000E+00 -8.43989925E-01 -8.15528582E-01
   3.51000000E+00 -8.52004647E-01 -7.87374702E-01
   3.52000000E+00 -8.59736614E-01 -7.58979224E-01
   3.53000000E+00 -8.67183458E-01 -7.30351712E-01
   3.54000000E+00 -8.74342907E-01 -7.01501788E-01
   3.55000000E+00 -8.81212784E-01 -6.72439122E-01
   3.56000000E+00 -8.87791012E-01 -6.43173436E-01
   3.57000000E+00 -8.94075609E-01 -6.13714497E-01
   3.58000000E+00 -9.00064691E-01 -5.84072117E-01
   3.59000000E+00 -9.05756473E-01 -5.54256149E-01
   3.60000000E+00 -9.11149268E-01 -5.24276485E-01
   3.61000000E+00 -9.16241490E-01 -4.94143046E-01
   3.62000000E+00 -9.21031650E-01 -4.63865790E-01
   3.63000000E+00 -9.25518359E-01 -4.33454702E-01
   3.64000000E+00 -9.29700331E-01 -4.02919793E-01
   3.65000000E+00 -9.33576376E-01 -3.72271094E-01
   3.66000000E+00 -9.37145407E-01 -3.41518659E-01
   3.67000000E+00 -9.40406437E-01 -3.10672555E-01
   3.68000000E+00 -9.43358579E-01 -2.79742866E-01
   3.69000000E+00 -9.46001049E-01 -2.48739688E-01
   3.70000000E+00 -9.48333162E-01 -2.17673116E-01
   3.71000000E+00 -9.50354334E-01 -1.86553257E-01
   3.72000000E+00 -9.52064083E-01 -1.55390221E-01
   3.73000000E+00 -9.53462028E-01 -1.24194109E-01
   3.74000000E+00 -9.54547889E-01 -9.29750174E-02
   3.75000000E+00 -9.55321486E-01 -6.17430396E-02
   3.76000000E+00 -9.55782740E-01 -3.05082583E-02
   3.77000000E+00 -9.55931675E-01  7.19258105E-04
   3.78000000E+00 -9.55768413E-01  3.19294638E-02
   3.79000000E+00 -9.55293177E-01  6.31123274E-02
   3.80000000E+00 -9.54506291E-01  9.42578388E-02
   3.81000000E+00 -9.53408178E-01  1.25356019E-01
   3.82000000E+00 -9.51999361E-01  1.56396915E-01
   3.83000000E+00 -9.50280463E-01  1.87370609E-01
   3.84000000E+00 -9.48252206E-01  2.18267214E-01
   3.85000000E+00 -9.45915409E-01  2.49076881E-01
   3.86000000E+00 -9.43270991E-01  2.79789805E-01
   3.87000000E+00 -9.40319968E-01  3.10396224E-01
   3.88000000E+00 -9.37063454E-01  3.40886416E-01
   3.89000000E+00 -9.33502659E-01  3.71250714E-01
   3.90000000E+00 -9.29638891E-01  4.01479508E-01
