 # Radial wave functions calculated by RADIAL.
 # **** Schrodinger Eq. Numerical potential.
 #      Input potential file: potential_1A1.dat   
 #      Free state: E= 4.409917E-01, L=   0  (EPS= 1.0E-15)
 #        Inner phase shift=-3.065941775860487E+00
 #      Coulomb phase shift=-5.989333103412725E+00  (ETA=-1.064829E+00)
 #      Matching radius: RAD(  847)= 8.460000000000001E+00
 #       R              P(R)            Q(R)
   0.00000000E+00  0.00000000E+00  0.00000000E+00
   1.00000000E-02  6.03539983E-02  5.66940164E+00
   2.00000000E-02  1.13567067E-01  4.98187425E+00
   3.00000000E-02  1.60159089E-01  4.34463375E+00
   4.00000000E-02  2.00616447E-01  3.75441050E+00
   5.00000000E-02  2.35393674E-01  3.20810579E+00
   6.00000000E-02  2.64915198E-01  2.70279771E+00
   7.00000000E-02  2.89577117E-01  2.23574223E+00
   8.00000000E-02  3.09748969E-01  1.80437041E+00
   9.00000000E-02  3.25775455E-01  1.40628276E+00
   1.00000000E-01  3.37978098E-01  1.03924233E+00
   1.10000000E-01  3.46656833E-01  7.01166358E-01
   1.20000000E-01  3.52091500E-01  3.90117442E-01
   1.30000000E-01  3.54543254E-01  1.04294312E-01
   1.40000000E-01  3.54255879E-01 -1.57977236E-01
   1.50000000E-01  3.51457015E-01 -3.98253265E-01
   1.60000000E-01  3.46359299E-01 -6.17980349E-01
   1.70000000E-01  3.39161411E-01 -8.18503650E-01
   1.80000000E-01  3.30049057E-01 -1.00107476E+00
   1.90000000E-01  3.19195863E-01 -1.16685895E+00
   2.00000000E-01  3.06764207E-01 -1.31694180E+00
   2.10000000E-01  2.92905983E-01 -1.45233548E+00
   2.20000000E-01  2.77763306E-01 -1.57398450E+00
   2.30000000E-01  2.61469162E-01 -1.68277103E+00
   2.40000000E-01  2.44148006E-01 -1.77951970E+00
   2.50000000E-01  2.25916317E-01 -1.86500210E+00
   2.60000000E-01  2.06883105E-01 -1.93994076E+00
   2.70000000E-01  1.87150385E-01 -2.00501297E+00
   2.80000000E-01  1.66813612E-01 -2.06085406E+00
   2.90000000E-01  1.45962082E-01 -2.10806053E+00
   3.00000000E-01  1.24679311E-01 -2.14719289E+00
   3.10000000E-01  1.03043378E-01 -2.17877817E+00
   3.20000000E-01  8.11272482E-02 -2.20331230E+00
   3.30000000E-01  5.89990761E-02 -2.22126223E+00
   3.40000000E-01  3.67224818E-02 -2.23306789E+00
   3.50000000E-01  1.43568142E-02 -2.23914400E+00
   3.60000000E-01 -8.04260571E-03 -2.23988164E+00
   3.70000000E-01 -3.04242561E-02 -2.23564983E+00
   3.80000000E-01 -5.27402005E-02 -2.22679683E+00
   3.90000000E-01 -7.49458869E-02 -2.21365148E+00
   4.00000000E-01 -9.69999593E-02 -2.19652431E+00
   4.10000000E-01 -1.18864080E-01 -2.17570862E+00
   4.20000000E-01 -1.40502762E-01 -2.15148150E+00
   4.30000000E-01 -1.61883213E-01 -2.12410476E+00
   4.40000000E-01 -1.82975184E-01 -2.09382574E+00
   4.50000000E-01 -2.03750834E-01 -2.06087813E+00
   4.60000000E-01 -2.24184589E-01 -2.02548271E+00
   4.70000000E-01 -2.44253025E-01 -1.98784805E+00
   4.80000000E-01 -2.63934744E-01 -1.94817113E+00
   4.90000000E-01 -2.83210261E-01 -1.90663797E+00
   5.00000000E-01 -3.02061902E-01 -1.86342417E+00
   5.10000000E-01 -3.20473696E-01 -1.81869549E+00
   5.20000000E-01 -3.38431284E-01 -1.77260828E+00
   5.30000000E-01 -3.55921826E-01 -1.72531002E+00
   5.40000000E-01 -3.72933912E-01 -1.67693976E+00
   5.50000000E-01 -3.89457485E-01 -1.62762847E+00
   5.60000000E-01 -4.05483757E-01 -1.57749953E+00
   5.70000000E-01 -4.21005138E-01 -1.52666906E+00
   5.80000000E-01 -4.36015164E-01 -1.47524629E+00
   5.90000000E-01 -4.50508432E-01 -1.42333391E+00
   6.00000000E-01 -4.64480533E-01 -1.37102838E+00
   6.10000000E-01 -4.77927992E-01 -1.31842026E+00
   6.20000000E-01 -4.90848213E-01 -1.26559444E+00
   6.30000000E-01 -5.03239421E-01 -1.21263051E+00
   6.40000000E-01 -5.15100612E-01 -1.15960297E+00
   6.50000000E-01 -5.26431501E-01 -1.10658149E+00
   6.60000000E-01 -5.37232479E-01 -1.05363119E+00
   6.70000000E-01 -5.47504565E-01 -1.00081278E+00
   6.80000000E-01 -5.57249364E-01 -9.48182907E-01
   6.90000000E-01 -5.66469028E-01 -8.95794263E-01
   7.00000000E-01 -5.75166217E-01 -8.43695830E-01
   7.10000000E-01 -5.83344064E-01 -7.91933061E-01
   7.20000000E-01 -5.91006138E-01 -7.40548066E-01
   7.30000000E-01 -5.98156414E-01 -6.89579783E-01
   7.40000000E-01 -6.04799243E-01 -6.39064164E-01
   7.50000000E-01 -6.10939317E-01 -5.89034306E-01
   7.60000000E-01 -6.16581650E-01 -5.39520623E-01
   7.70000000E-01 -6.21731543E-01 -4.90550987E-01
   7.80000000E-01 -6.26394568E-01 -4.42150853E-01
   7.90000000E-01 -6.30576536E-01 -3.94343422E-01
   8.00000000E-01 -6.34283482E-01 -3.47149745E-01
   8.10000000E-01 -6.37521641E-01 -3.00588843E-01
   8.20000000E-01 -6.40297426E-01 -2.54677816E-01
   8.30000000E-01 -6.42617414E-01 -2.09431984E-01
   8.40000000E-01 -6.44488328E-01 -1.64864972E-01
   8.50000000E-01 -6.45917017E-01 -1.20988796E-01
   8.60000000E-01 -6.46910442E-01 -7.78139778E-02
   8.70000000E-01 -6.47475665E-01 -3.53496382E-02
   8.80000000E-01 -6.47619829E-01  6.39643153E-03
   8.90000000E-01 -6.47350152E-01  4.74176863E-02
   9.00000000E-01 -6.46673910E-01  8.77087400E-02
   9.10000000E-01 -6.45598426E-01  1.27265294E-01
   9.20000000E-01 -6.44131063E-01  1.66084066E-01
   9.30000000E-01 -6.42279212E-01  2.04162727E-01
   9.40000000E-01 -6.40050281E-01  2.41499822E-01
   9.50000000E-01 -6.37451689E-01  2.78094737E-01
   9.60000000E-01 -6.34490859E-01  3.13947620E-01
   9.70000000E-01 -6.31175208E-01  3.49059324E-01
   9.80000000E-01 -6.27512138E-01  3.83431382E-01
   9.90000000E-01 -6.23509038E-01  4.17065923E-01
   1.00000000E+00 -6.19173270E-01  4.49965643E-01
   1.01000000E+00 -6.14512164E-01  4.82133759E-01
   1.02000000E+00 -6.09533021E-01  5.13573961E-01
   1.03000000E+00 -6.04243098E-01  5.44290379E-01
   1.04000000E+00 -5.98649611E-01  5.74287581E-01
   1.05000000E+00 -5.92759727E-01  6.03570436E-01
   1.06000000E+00 -5.86580566E-01  6.32144190E-01
   1.07000000E+00 -5.80119189E-01  6.60014381E-01
   1.08000000E+00 -5.73382604E-01  6.87186815E-01
   1.09000000E+00 -5.66377758E-01  7.13667539E-01
   1.10000000E+00 -5.59111538E-01  7.39462824E-01
   1.11000000E+00 -5.51590765E-01  7.64579125E-01
   1.12000000E+00 -5.43822197E-01  7.89023067E-01
   1.13000000E+00 -5.35812522E-01  8.12801427E-01
   1.14000000E+00 -5.27568364E-01  8.35921096E-01
   1.15000000E+00 -5.19096273E-01  8.58389083E-01
   1.16000000E+00 -5.10402731E-01  8.80212475E-01
   1.17000000E+00 -5.01494148E-01  9.01398436E-01
   1.18000000E+00 -4.92376863E-01  9.21954183E-01
   1.19000000E+00 -4.83057141E-01  9.41886972E-01
   1.20000000E+00 -4.73541175E-01  9.61204088E-01
   1.21000000E+00 -4.63835087E-01  9.79912826E-01
   1.22000000E+00 -4.53944923E-01  9.98020485E-01
   1.23000000E+00 -4.43876657E-01  1.01553435E+00
   1.24000000E+00 -4.33636191E-01  1.03246170E+00
   1.25000000E+00 -4.23229354E-01  1.04880976E+00
   1.26000000E+00 -4.12661902E-01  1.06458574E+00
   1.27000000E+00 -4.01939522E-01  1.07979679E+00
   1.28000000E+00 -3.91067826E-01  1.09445001E+00
   1.29000000E+00 -3.80052358E-01  1.10855245E+00
   1.30000000E+00 -3.68898590E-01  1.12211108E+00
   1.31000000E+00 -3.57611926E-01  1.13513279E+00
   1.32000000E+00 -3.46197701E-01  1.14762441E+00
   1.33000000E+00 -3.34661182E-01  1.15959269E+00
   1.34000000E+00 -3.23007569E-01  1.17104429E+00
   1.35000000E+00 -3.11241997E-01  1.18198576E+00
   1.36000000E+00 -2.99369533E-01  1.19242359E+00
   1.37000000E+00 -2.87395182E-01  1.20236416E+00
   1.38000000E+00 -2.75323886E-01  1.21181375E+00
   1.39000000E+00 -2.63160523E-01  1.22077854E+00
   1.40000000E+00 -2.50909911E-01  1.22926461E+00
   1.41000000E+00 -2.38576807E-01  1.23727794E+00
   1.42000000E+00 -2.26165909E-01  1.24482441E+00
   1.43000000E+00 -2.13681856E-01  1.25190979E+00
   1.44000000E+00 -2.01129231E-01  1.25853974E+00
   1.45000000E+00 -1.88512560E-01  1.26471983E+00
   1.46000000E+00 -1.75836316E-01  1.27045552E+00
   1.47000000E+00 -1.63104914E-01  1.27575214E+00
   1.48000000E+00 -1.50322719E-01  1.28061496E+00
   1.49000000E+00 -1.37494043E-01  1.28504911E+00
   1.50000000E+00 -1.24623149E-01  1.28905963E+00
   1.51000000E+00 -1.11714246E-01  1.29265147E+00
   1.52000000E+00 -9.87714986E-02  1.29582946E+00
   1.53000000E+00 -8.57990206E-02  1.29859835E+00
   1.54000000E+00 -7.28008799E-02  1.30096277E+00
   1.55000000E+00 -5.97810984E-02  1.30292726E+00
   1.56000000E+00 -4.67436529E-02  1.30449629E+00
   1.57000000E+00 -3.36924763E-02  1.30567420E+00
   1.58000000E+00 -2.06314584E-02  1.30646527E+00
   1.59000000E+00 -7.56444654E-03  1.30687367E+00
   1.60000000E+00  5.50475306E-03  1.30690350E+00
   1.61000000E+00  1.85723748E-02  1.30655876E+00
   1.62000000E+00  3.16346927E-02  1.30584338E+00
   1.63000000E+00  4.46880197E-02  1.30476120E+00
   1.64000000E+00  5.77287067E-02  1.30331601E+00
   1.65000000E+00  7.07531421E-02  1.30151147E+00
   1.66000000E+00  8.37577505E-02  1.29935123E+00
   1.67000000E+00  9.67389929E-02  1.29683883E+00
   1.68000000E+00  1.09693365E-01  1.29397776E+00
   1.69000000E+00  1.22617397E-01  1.29077142E+00
   1.70000000E+00  1.35507654E-01  1.28722319E+00
   1.71000000E+00  1.48360732E-01  1.28333636E+00
   1.72000000E+00  1.61173263E-01  1.27911416E+00
   1.73000000E+00  1.73941908E-01  1.27455979E+00
   1.74000000E+00  1.86663362E-01  1.26967639E+00
   1.75000000E+00  1.99334350E-01  1.26446703E+00
   1.76000000E+00  2.11951626E-01  1.25893476E+00
   1.77000000E+00  2.24511978E-01  1.25308257E+00
   1.78000000E+00  2.37012221E-01  1.24691343E+00
   1.79000000E+00  2.49449200E-01  1.24043024E+00
   1.80000000E+00  2.61819789E-01  1.23363591E+00
   1.81000000E+00  2.74120890E-01  1.22653327E+00
   1.82000000E+00  2.86349436E-01  1.21912514E+00
   1.83000000E+00  2.98502384E-01  1.21141433E+00
   1.84000000E+00  3.10576723E-01  1.20340359E+00
   1.85000000E+00  3.22569466E-01  1.19509569E+00
   1.86000000E+00  3.34477655E-01  1.18649334E+00
   1.87000000E+00  3.46298360E-01  1.17759925E+00
   1.88000000E+00  3.58028677E-01  1.16841613E+00
   1.89000000E+00  3.69665728E-01  1.15894666E+00
   1.90000000E+00  3.81206664E-01  1.14919352E+00
   1.91000000E+00  3.92648662E-01  1.13915937E+00
   1.92000000E+00  4.03988924E-01  1.12884687E+00
   1.93000000E+00  4.15224680E-01  1.11825870E+00
   1.94000000E+00  4.26353188E-01  1.10739751E+00
   1.95000000E+00  4.37371729E-01  1.09626597E+00
   1.96000000E+00  4.48277615E-01  1.08486675E+00
   1.97000000E+00  4.59068181E-01  1.07320252E+00
   1.98000000E+00  4.69740791E-01  1.06127598E+00
   1.99000000E+00  4.80292835E-01  1.04908982E+00
   2.00000000E+00  4.90721731E-01  1.03664674E+00
   2.01000000E+00  5.01024923E-01  1.02394949E+00
   2.02000000E+00  5.11199883E-01  1.01100080E+00
   2.03000000E+00  5.21244110E-01  9.97803426E-01
   2.04000000E+00  5.31155132E-01  9.84360168E-01
   2.05000000E+00  5.40930503E-01  9.70673828E-01
   2.06000000E+00  5.50567807E-01  9.56747239E-01
   2.07000000E+00  5.60064656E-01  9.42583262E-01
   2.08000000E+00  5.69418691E-01  9.28184741E-01
   2.09000000E+00  5.78627756E-01  9.13607682E-01
   2.10000000E+00  5.87690441E-01  8.98909667E-01
   2.11000000E+00  5.96605563E-01  8.84095841E-01
   2.12000000E+00  6.05371989E-01  8.69171292E-01
   2.13000000E+00  6.13988637E-01  8.54141001E-01
   2.14000000E+00  6.22454473E-01  8.39009847E-01
   2.15000000E+00  6.30768513E-01  8.23782613E-01
   2.16000000E+00  6.38929820E-01  8.08463984E-01
   2.17000000E+00  6.46937504E-01  7.93058549E-01
   2.18000000E+00  6.54790717E-01  7.77570803E-01
   2.19000000E+00  6.62488660E-01  7.62005154E-01
   2.20000000E+00  6.70030575E-01  7.46365919E-01
   2.21000000E+00  6.77415747E-01  7.30657329E-01
   2.22000000E+00  6.84643504E-01  7.14883531E-01
   2.23000000E+00  6.91713214E-01  6.99048588E-01
   2.24000000E+00  6.98624285E-01  6.83156486E-01
   2.25000000E+00  7.05376166E-01  6.67211127E-01
   2.26000000E+00  7.11968343E-01  6.51216341E-01
   2.27000000E+00  7.18400341E-01  6.35175881E-01
   2.28000000E+00  7.24671721E-01  6.19093428E-01
   2.29000000E+00  7.30782081E-01  6.02972592E-01
   2.30000000E+00  7.36731056E-01  5.86816911E-01
   2.31000000E+00  7.42518315E-01  5.70629858E-01
   2.32000000E+00  7.48143560E-01  5.54414839E-01
   2.33000000E+00  7.53606530E-01  5.38175195E-01
   2.34000000E+00  7.58906993E-01  5.21914206E-01
   2.35000000E+00  7.64044753E-01  5.05635089E-01
   2.36000000E+00  7.69019645E-01  4.89341002E-01
   2.37000000E+00  7.73831534E-01  4.73035045E-01
   2.38000000E+00  7.78480317E-01  4.56720260E-01
   2.39000000E+00  7.82965920E-01  4.40399637E-01
   2.40000000E+00  7.87288300E-01  4.24076108E-01
   2.41000000E+00  7.91447442E-01  4.07752556E-01
   2.42000000E+00  7.95443360E-01  3.91431813E-01
   2.43000000E+00  7.99276097E-01  3.75116657E-01
   2.44000000E+00  8.02945721E-01  3.58809823E-01
   2.45000000E+00  8.06452330E-01  3.42513995E-01
   2.46000000E+00  8.09796046E-01  3.26231811E-01
   2.47000000E+00  8.12977020E-01  3.09965864E-01
   2.48000000E+00  8.15995426E-01  2.93718707E-01
   2.49000000E+00  8.18851465E-01  2.77492847E-01
   2.50000000E+00  8.21545362E-01  2.61290748E-01
   2.51000000E+00  8.24077368E-01  2.45114836E-01
   2.52000000E+00  8.26447754E-01  2.28967498E-01
   2.53000000E+00  8.28656821E-01  2.12851078E-01
   2.54000000E+00  8.30704887E-01  1.96767890E-01
   2.55000000E+00  8.32592297E-01  1.80720203E-01
   2.56000000E+00  8.34319417E-01  1.64710256E-01
   2.57000000E+00  8.35886635E-01  1.48740249E-01
   2.58000000E+00  8.37294362E-01  1.32812352E-01
   2.59000000E+00  8.38543029E-01  1.16928698E-01
   2.60000000E+00  8.39633090E-01  1.01091391E-01
   2.61000000E+00  8.40565019E-01  8.53024998E-02
   2.62000000E+00  8.41339309E-01  6.95640655E-02
   2.63000000E+00  8.41956475E-01  5.38780953E-02
   2.64000000E+00  8.42417052E-01  3.82465682E-02
   2.65000000E+00  8.42721594E-01  2.26714347E-02
   2.66000000E+00  8.42870675E-01  7.15461820E-03
   2.67000000E+00  8.42864887E-01 -8.30198876E-03
   2.68000000E+00  8.42704842E-01 -2.36965179E-02
   2.69000000E+00  8.42391170E-01 -3.90271292E-02
   2.70000000E+00  8.41924519E-01 -5.42920099E-02
   2.71000000E+00  8.41305555E-01 -6.94893686E-02
   2.72000000E+00  8.40534962E-01 -8.46174438E-02
   2.73000000E+00  8.39613443E-01 -9.96744943E-02
   2.74000000E+00  8.38541715E-01 -1.14658807E-01
   2.75000000E+00  8.37320515E-01 -1.29568690E-01
   2.76000000E+00  8.35950595E-01 -1.44402472E-01
   2.77000000E+00  8.34432724E-01 -1.59158512E-01
   2.78000000E+00  8.32767689E-01 -1.73835185E-01
   2.79000000E+00  8.30956291E-01 -1.88430891E-01
   2.80000000E+00  8.28999346E-01 -2.02944050E-01
   2.81000000E+00  8.26897690E-01 -2.17373105E-01
   2.82000000E+00  8.24652170E-01 -2.31716518E-01
   2.83000000E+00  8.22263650E-01 -2.45972774E-01
   2.84000000E+00  8.19733010E-01 -2.60140378E-01
   2.85000000E+00  8.17061143E-01 -2.74217854E-01
   2.86000000E+00  8.14248958E-01 -2.88203748E-01
   2.87000000E+00  8.11297378E-01 -3.02096623E-01
   2.88000000E+00  8.08207340E-01 -3.15895063E-01
   2.89000000E+00  8.04979796E-01 -3.29597673E-01
   2.90000000E+00  8.01615711E-01 -3.43203072E-01
   2.91000000E+00  7.98116063E-01 -3.56709903E-01
   2.92000000E+00  7.94481846E-01 -3.70116825E-01
   2.93000000E+00  7.90714064E-01 -3.83422516E-01
   2.94000000E+00  7.86813737E-01 -3.96625671E-01
   2.95000000E+00  7.82781897E-01 -4.09725006E-01
   2.96000000E+00  7.78619588E-01 -4.22719253E-01
   2.97000000E+00  7.74327866E-01 -4.35607161E-01
   2.98000000E+00  7.69907803E-01 -4.48387501E-01
   2.99000000E+00  7.65360479E-01 -4.61059057E-01
   3.00000000E+00  7.60686988E-01 -4.73620629E-01
   3.01000000E+00  7.55888437E-01 -4.86071041E-01
   3.02000000E+00  7.50965942E-01 -4.98409129E-01
   3.03000000E+00  7.45920633E-01 -5.10633749E-01
   3.04000000E+00  7.40753649E-01 -5.22743773E-01
   3.05000000E+00  7.35466143E-01 -5.34738090E-01
   3.06000000E+00  7.30059277E-01 -5.46615605E-01
   3.07000000E+00  7.24534224E-01 -5.58375242E-01
   3.08000000E+00  7.18892168E-01 -5.70015941E-01
   3.09000000E+00  7.13134305E-01 -5.81536660E-01
   3.10000000E+00  7.07261838E-01 -5.92936371E-01
   3.11000000E+00  7.01275984E-01 -6.04214064E-01
   3.12000000E+00  6.95177967E-01 -6.15368749E-01
   3.13000000E+00  6.88969022E-01 -6.26399448E-01
   3.14000000E+00  6.82650395E-01 -6.37305200E-01
   3.15000000E+00  6.76223338E-01 -6.48085067E-01
   3.16000000E+00  6.69689116E-01 -6.58738117E-01
   3.17000000E+00  6.63049001E-01 -6.69263445E-01
   3.18000000E+00  6.56304276E-01 -6.79660157E-01
   3.19000000E+00  6.49456230E-01 -6.89927377E-01
   3.20000000E+00  6.42506163E-01 -7.00064243E-01
   3.21000000E+00  6.35455382E-01 -7.10069914E-01
   3.22000000E+00  6.28305205E-01 -7.19943566E-01
   3.23000000E+00  6.21056954E-01 -7.29684385E-01
   3.24000000E+00  6.13711962E-01 -7.39291579E-01
   3.25000000E+00  6.06271570E-01 -7.48764376E-01
   3.26000000E+00  5.98737125E-01 -7.58102012E-01
   3.27000000E+00  5.91109983E-01 -7.67303744E-01
   3.28000000E+00  5.83391506E-01 -7.76368850E-01
   3.29000000E+00  5.75583064E-01 -7.85296618E-01
   3.30000000E+00  5.67686034E-01 -7.94086355E-01
   3.31000000E+00  5.59701799E-01 -8.02737386E-01
   3.32000000E+00  5.51631750E-01 -8.11249055E-01
   3.33000000E+00  5.43477285E-01 -8.19620717E-01
   3.34000000E+00  5.35239805E-01 -8.27851746E-01
   3.35000000E+00  5.26920721E-01 -8.35941533E-01
   3.36000000E+00  5.18521447E-01 -8.43889490E-01
   3.37000000E+00  5.10043405E-01 -8.51695039E-01
   3.38000000E+00  5.01488023E-01 -8.59357625E-01
   3.39000000E+00  4.92856731E-01 -8.66876708E-01
   3.40000000E+00  4.84150969E-01 -8.74251763E-01
   3.41000000E+00  4.75372178E-01 -8.81482283E-01
   3.42000000E+00  4.66521806E-01 -8.88567780E-01
   3.43000000E+00  4.57601307E-01 -8.95507780E-01
   3.44000000E+00  4.48612137E-01 -9.02301828E-01
   3.45000000E+00  4.39555759E-01 -9.08949487E-01
   3.46000000E+00  4.30433637E-01 -9.15450336E-01
   3.47000000E+00  4.21247243E-01 -9.21803971E-01
   3.48000000E+00  4.11998050E-01 -9.28010003E-01
   3.49000000E+00  4.02687536E-01 -9.34068067E-01
   3.50000000E+00  3.93317183E-01 -9.39977808E-01
   3.51000000E+00  3.83888475E-01 -9.45738892E-01
   3.52000000E+00  3.74402901E-01 -9.51351002E-01
   3.53000000E+00  3.64861953E-01 -9.56813836E-01
   3.54000000E+00  3.55267123E-01 -9.62127112E-01
   3.55000000E+00  3.45619910E-01 -9.67290564E-01
   3.56000000E+00  3.35921812E-01 -9.72303945E-01
   3.57000000E+00  3.26174332E-01 -9.77167024E-01
   3.58000000E+00  3.16378973E-01 -9.81879586E-01
   3.59000000E+00  3.06537243E-01 -9.86441436E-01
   3.60000000E+00  2.96650648E-01 -9.90852394E-01
   3.61000000E+00  2.86720698E-01 -9.95112299E-01
   3.62000000E+00  2.76748906E-01 -9.99221007E-01
   3.63000000E+00  2.66736783E-01 -1.00317839E+00
   3.64000000E+00  2.56685843E-01 -1.00698434E+00
   3.65000000E+00  2.46597601E-01 -1.01063877E+00
   3.66000000E+00  2.36473573E-01 -1.01414159E+00
   3.67000000E+00  2.26315274E-01 -1.01749276E+00
   3.68000000E+00  2.16124223E-01 -1.02069224E+00
   3.69000000E+00  2.05901935E-01 -1.02373999E+00
   3.70000000E+00  1.95649929E-01 -1.02663602E+00
   3.71000000E+00  1.85369721E-01 -1.02938033E+00
   3.72000000E+00  1.75062828E-01 -1.03197296E+00
   3.73000000E+00  1.64730767E-01 -1.03441396E+00
   3.74000000E+00  1.54375054E-01 -1.03670338E+00
   3.75000000E+00  1.43997204E-01 -1.03884131E+00
   3.76000000E+00  1.33598733E-01 -1.04082784E+00
   3.77000000E+00  1.23181152E-01 -1.04266310E+00
   3.78000000E+00  1.12745974E-01 -1.04434721E+00
   3.79000000E+00  1.02294711E-01 -1.04588033E+00
   3.80000000E+00  9.18288705E-02 -1.04726262E+00
   3.81000000E+00  8.13499607E-02 -1.04849426E+00
   3.82000000E+00  7.08594868E-02 -1.04957546E+00
   3.83000000E+00  6.03589522E-02 -1.05050643E+00
   3.84000000E+00  4.98498581E-02 -1.05128742E+00
   3.85000000E+00  3.93337030E-02 -1.05191866E+00
   3.86000000E+00  2.88119831E-02 -1.05240043E+00
   3.87000000E+00  1.82861916E-02 -1.05273302E+00
   3.88000000E+00  7.75781896E-03 -1.05291673E+00
   3.89000000E+00 -2.77164768E-03 -1.05295187E+00
   3.90000000E+00 -1.33007243E-02 -1.05283878E+00
