 # Radial wave functions calculated by RADIAL.
 # **** Schrodinger Eq. Numerical potential.
 #      Input potential file: potential_1A1.dat   
 #      Free state: E= 4.409917E-01, L=   4  (EPS= 1.0E-15)
 #        Inner phase shift= 2.202418054740152E-02
 #      Coulomb phase shift=-1.613418844146624E+00  (ETA=-1.064829E+00)
 #      Matching radius: RAD(  847)= 8.460000000000001E+00
 #       R              P(R)            Q(R)
   0.00000000E+00  0.00000000E+00  0.00000000E+00
   1.00000000E-02  9.43277600E-13  4.70520505E-10
   2.00000000E-02  2.98312930E-11  7.42288676E-09
   3.00000000E-02  2.23909866E-10  3.70592755E-08
   4.00000000E-02  9.32767196E-10  1.15529908E-07
   5.00000000E-02  2.81442782E-09  2.78265151E-07
   6.00000000E-02  6.92504022E-09  5.69361213E-07
   7.00000000E-02  1.48026663E-08  1.04101394E-06
   8.00000000E-02  2.85456278E-08  1.75299556E-06
   9.00000000E-02  5.08858152E-08  2.77216972E-06
   1.00000000E-01  8.52573203E-08  4.17204053E-06
   1.10000000E-01  1.35860714E-07  6.03233206E-06
   1.20000000E-01  2.07723260E-07  8.43859507E-06
   1.30000000E-01  3.06755315E-07  1.14818382E-05
   1.40000000E-01  4.39803159E-07  1.52581814E-05
   1.50000000E-01  6.14698462E-07  1.98685296E-05
   1.60000000E-01  8.40304579E-07  2.54182654E-05
   1.70000000E-01  1.12655986E-06  3.20169584E-05
   1.80000000E-01  1.48451814E-06  3.97780913E-05
   1.90000000E-01  1.92638656E-06  4.88188006E-05
   2.00000000E-01  2.46556087E-06  5.92596324E-05
   2.10000000E-01  3.11665837E-06  7.12243115E-05
   2.20000000E-01  3.89554857E-06  8.48395234E-05
   2.30000000E-01  4.81938180E-06  1.00234709E-04
   2.40000000E-01  5.90661574E-06  1.17541871E-04
   2.50000000E-01  7.17704016E-06  1.36895392E-04
   2.60000000E-01  8.65179986E-06  1.58431866E-04
   2.70000000E-01  1.03534159E-05  1.82289934E-04
   2.80000000E-01  1.23058055E-05  2.08610140E-04
   2.90000000E-01  1.45343000E-05  2.37534785E-04
   3.00000000E-01  1.70656622E-05  2.69207801E-04
   3.10000000E-01  1.99281019E-05  3.03774629E-04
   3.20000000E-01  2.31512902E-05  3.41382105E-04
   3.30000000E-01  2.67663731E-05  3.82178357E-04
   3.40000000E-01  3.08059842E-05  4.26312706E-04
   3.50000000E-01  3.53042555E-05  4.73935580E-04
   3.60000000E-01  4.02968289E-05  5.25198433E-04
   3.70000000E-01  4.58208654E-05  5.80253664E-04
   3.80000000E-01  5.19150543E-05  6.39254551E-04
   3.90000000E-01  5.86196221E-05  7.02355188E-04
   4.00000000E-01  6.59763400E-05  7.69710430E-04
   4.10000000E-01  7.40285312E-05  8.41475832E-04
   4.20000000E-01  8.28210778E-05  9.17807609E-04
   4.30000000E-01  9.24004273E-05  9.98862590E-04
   4.40000000E-01  1.02814598E-04  1.08479818E-03
   4.50000000E-01  1.14113186E-04  1.17577231E-03
   4.60000000E-01  1.26347368E-04  1.27194342E-03
   4.70000000E-01  1.39569907E-04  1.37347044E-03
   4.80000000E-01  1.53835161E-04  1.48051272E-03
   4.90000000E-01  1.69199078E-04  1.59323005E-03
   5.00000000E-01  1.85719212E-04  1.71178262E-03
   5.10000000E-01  2.03454717E-04  1.83633098E-03
   5.20000000E-01  2.22466354E-04  1.96703606E-03
   5.30000000E-01  2.42816498E-04  2.10405913E-03
   5.40000000E-01  2.64569135E-04  2.24756176E-03
   5.50000000E-01  2.87789871E-04  2.39770584E-03
   5.60000000E-01  3.12545931E-04  2.55465356E-03
   5.70000000E-01  3.38906163E-04  2.71856735E-03
   5.80000000E-01  3.66941041E-04  2.88960994E-03
   5.90000000E-01  3.96722667E-04  3.06794429E-03
   6.00000000E-01  4.28324776E-04  3.25373358E-03
   6.10000000E-01  4.61822733E-04  3.44714122E-03
   6.20000000E-01  4.97293540E-04  3.64833078E-03
   6.30000000E-01  5.34815835E-04  3.85746604E-03
   6.40000000E-01  5.74469893E-04  4.07471091E-03
   6.50000000E-01  6.16337632E-04  4.30022949E-03
   6.60000000E-01  6.60502609E-04  4.53418596E-03
   6.70000000E-01  7.07050025E-04  4.77674461E-03
   6.80000000E-01  7.56066723E-04  5.02806982E-03
   6.90000000E-01  8.07641191E-04  5.28832602E-03
   7.00000000E-01  8.61863562E-04  5.55767767E-03
   7.10000000E-01  9.18825611E-04  5.83628922E-03
   7.20000000E-01  9.78620761E-04  6.12432512E-03
   7.30000000E-01  1.04134408E-03  6.42194973E-03
   7.40000000E-01  1.10709227E-03  6.72932737E-03
   7.50000000E-01  1.17596368E-03  7.04662220E-03
   7.60000000E-01  1.24805831E-03  7.37399825E-03
   7.70000000E-01  1.32347780E-03  7.71161937E-03
   7.80000000E-01  1.40232540E-03  8.05964914E-03
   7.90000000E-01  1.48470602E-03  8.41825090E-03
   8.00000000E-01  1.57072620E-03  8.78758769E-03
   8.10000000E-01  1.66049410E-03  9.16782218E-03
   8.20000000E-01  1.75411951E-03  9.55911658E-03
   8.30000000E-01  1.85171384E-03  9.96163274E-03
   8.40000000E-01  1.95339011E-03  1.03755320E-02
   8.50000000E-01  2.05926295E-03  1.08009750E-02
   8.60000000E-01  2.16944862E-03  1.12381219E-02
   8.70000000E-01  2.28406494E-03  1.16871322E-02
   8.80000000E-01  2.40323134E-03  1.21481647E-02
   8.90000000E-01  2.52706883E-03  1.26213773E-02
   9.00000000E-01  2.65570001E-03  1.31069271E-02
   9.10000000E-01  2.78924902E-03  1.36049701E-02
   9.20000000E-01  2.92784157E-03  1.41156617E-02
   9.30000000E-01  3.07160493E-03  1.46391560E-02
   9.40000000E-01  3.22066788E-03  1.51756058E-02
   9.50000000E-01  3.37516074E-03  1.57251631E-02
   9.60000000E-01  3.53521533E-03  1.62879783E-02
   9.70000000E-01  3.70096499E-03  1.68642006E-02
   9.80000000E-01  3.87254453E-03  1.74539775E-02
   9.90000000E-01  4.05009021E-03  1.80574554E-02
   1.00000000E+00  4.23373979E-03  1.86747786E-02
   1.01000000E+00  4.42363241E-03  1.93060902E-02
   1.02000000E+00  4.61990869E-03  1.99515311E-02
   1.03000000E+00  4.82271060E-03  2.06112407E-02
   1.04000000E+00  5.03218152E-03  2.12853558E-02
   1.05000000E+00  5.24846619E-03  2.19740120E-02
   1.06000000E+00  5.47171067E-03  2.26773420E-02
   1.07000000E+00  5.70206237E-03  2.33954765E-02
   1.08000000E+00  5.93966998E-03  2.41285439E-02
   1.09000000E+00  6.18468345E-03  2.48766702E-02
   1.10000000E+00  6.43725399E-03  2.56399784E-02
   1.11000000E+00  6.69753403E-03  2.64185893E-02
   1.12000000E+00  6.96567718E-03  2.72126207E-02
   1.13000000E+00  7.24183823E-03  2.80221875E-02
   1.14000000E+00  7.52617309E-03  2.88474015E-02
   1.15000000E+00  7.81883878E-03  2.96883717E-02
   1.16000000E+00  8.11999339E-03  3.05452034E-02
   1.17000000E+00  8.42979606E-03  3.14179990E-02
   1.18000000E+00  8.74840691E-03  3.23068570E-02
   1.19000000E+00  9.07598706E-03  3.32118726E-02
   1.20000000E+00  9.41269853E-03  3.41331372E-02
   1.21000000E+00  9.75870426E-03  3.50707384E-02
   1.22000000E+00  1.01141680E-02  3.60247597E-02
   1.23000000E+00  1.04792545E-02  3.69952808E-02
   1.24000000E+00  1.08541289E-02  3.79823768E-02
   1.25000000E+00  1.12389575E-02  3.89861188E-02
   1.26000000E+00  1.16339070E-02  4.00065732E-02
   1.27000000E+00  1.20391449E-02  4.10438020E-02
   1.28000000E+00  1.24548391E-02  4.20978624E-02
   1.29000000E+00  1.28811584E-02  4.31688068E-02
   1.30000000E+00  1.33182717E-02  4.42566825E-02
   1.31000000E+00  1.37663486E-02  4.53615318E-02
   1.32000000E+00  1.42255590E-02  4.64833917E-02
   1.33000000E+00  1.46960733E-02  4.76222938E-02
   1.34000000E+00  1.51780618E-02  4.87782643E-02
   1.35000000E+00  1.56716955E-02  4.99513236E-02
   1.36000000E+00  1.61771453E-02  5.11414866E-02
   1.37000000E+00  1.66945823E-02  5.23487619E-02
   1.38000000E+00  1.72241776E-02  5.35731524E-02
   1.39000000E+00  1.77661024E-02  5.48146547E-02
   1.40000000E+00  1.83205277E-02  5.60732590E-02
   1.41000000E+00  1.88876245E-02  5.73489493E-02
   1.42000000E+00  1.94675636E-02  5.86417027E-02
   1.43000000E+00  2.00605153E-02  5.99514899E-02
   1.44000000E+00  2.06666500E-02  6.12782747E-02
   1.45000000E+00  2.12861373E-02  6.26220138E-02
   1.46000000E+00  2.19191466E-02  6.39826568E-02
   1.47000000E+00  2.25658466E-02  6.53601462E-02
   1.48000000E+00  2.32264055E-02  6.67544172E-02
   1.49000000E+00  2.39009907E-02  6.81653973E-02
   1.50000000E+00  2.45897689E-02  6.95930066E-02
   1.51000000E+00  2.52929059E-02  7.10371573E-02
   1.52000000E+00  2.60105668E-02  7.24977538E-02
   1.53000000E+00  2.67429155E-02  7.39746925E-02
   1.54000000E+00  2.74901148E-02  7.54678617E-02
   1.55000000E+00  2.82523264E-02  7.69771416E-02
   1.56000000E+00  2.90297109E-02  7.85024037E-02
   1.57000000E+00  2.98224273E-02  8.00435116E-02
   1.58000000E+00  3.06306335E-02  8.16003199E-02
   1.59000000E+00  3.14544855E-02  8.31726746E-02
   1.60000000E+00  3.22941382E-02  8.47604129E-02
   1.61000000E+00  3.31497445E-02  8.63633630E-02
   1.62000000E+00  3.40214556E-02  8.79813445E-02
   1.63000000E+00  3.49094209E-02  8.96141675E-02
   1.64000000E+00  3.58137878E-02  9.12616328E-02
   1.65000000E+00  3.67347016E-02  9.29235323E-02
   1.66000000E+00  3.76723058E-02  9.45996481E-02
   1.67000000E+00  3.86267412E-02  9.62897531E-02
   1.68000000E+00  3.95981467E-02  9.79936103E-02
   1.69000000E+00  4.05866585E-02  9.97109731E-02
   1.70000000E+00  4.15924103E-02  1.01441586E-01
   1.71000000E+00  4.26155335E-02  1.03185181E-01
   1.72000000E+00  4.36561563E-02  1.04941484E-01
   1.73000000E+00  4.47144045E-02  1.06710208E-01
   1.74000000E+00  4.57904009E-02  1.08491058E-01
   1.75000000E+00  4.68842651E-02  1.10283726E-01
   1.76000000E+00  4.79961138E-02  1.12087897E-01
   1.77000000E+00  4.91260603E-02  1.13903244E-01
   1.78000000E+00  5.02742148E-02  1.15729429E-01
   1.79000000E+00  5.14406838E-02  1.17566106E-01
   1.80000000E+00  5.26255707E-02  1.19412918E-01
   1.81000000E+00  5.38289748E-02  1.21269494E-01
   1.82000000E+00  5.50509919E-02  1.23135458E-01
   1.83000000E+00  5.62917139E-02  1.25010420E-01
   1.84000000E+00  5.75512289E-02  1.26893980E-01
   1.85000000E+00  5.88296208E-02  1.28785727E-01
   1.86000000E+00  6.01269693E-02  1.30685242E-01
   1.87000000E+00  6.14433501E-02  1.32592093E-01
   1.88000000E+00  6.27788342E-02  1.34505838E-01
   1.89000000E+00  6.41334883E-02  1.36426023E-01
   1.90000000E+00  6.55073746E-02  1.38352187E-01
   1.91000000E+00  6.69005504E-02  1.40283854E-01
   1.92000000E+00  6.83130684E-02  1.42220541E-01
   1.93000000E+00  6.97449763E-02  1.44161752E-01
   1.94000000E+00  7.11963168E-02  1.46106983E-01
   1.95000000E+00  7.26671276E-02  1.48055716E-01
   1.96000000E+00  7.41574411E-02  1.50007426E-01
   1.97000000E+00  7.56672843E-02  1.51961576E-01
   1.98000000E+00  7.71966789E-02  1.53917617E-01
   1.99000000E+00  7.87456411E-02  1.55874993E-01
   2.00000000E+00  8.03141813E-02  1.57833135E-01
   2.01000000E+00  8.19023044E-02  1.59791465E-01
   2.02000000E+00  8.35100093E-02  1.61749394E-01
   2.03000000E+00  8.51372890E-02  1.63706325E-01
   2.04000000E+00  8.67841304E-02  1.65661648E-01
   2.05000000E+00  8.84505145E-02  1.67614745E-01
   2.06000000E+00  9.01364158E-02  1.69564987E-01
   2.07000000E+00  9.18418026E-02  1.71511737E-01
   2.08000000E+00  9.35666367E-02  1.73454341E-01
   2.09000000E+00  9.53109025E-02  1.75400877E-01
   2.10000000E+00  9.70746953E-02  1.77359738E-01
   2.11000000E+00  9.88581376E-02  1.79330726E-01
   2.12000000E+00  1.00661350E-01  1.81313650E-01
   2.13000000E+00  1.02484450E-01  1.83308317E-01
   2.14000000E+00  1.04327554E-01  1.85314529E-01
   2.15000000E+00  1.06190778E-01  1.87332089E-01
   2.16000000E+00  1.08074233E-01  1.89360796E-01
   2.17000000E+00  1.09978031E-01  1.91400449E-01
   2.18000000E+00  1.11902278E-01  1.93450841E-01
   2.19000000E+00  1.13847083E-01  1.95511765E-01
   2.20000000E+00  1.15812548E-01  1.97583013E-01
   2.21000000E+00  1.17798776E-01  1.99664371E-01
   2.22000000E+00  1.19805868E-01  2.01755625E-01
   2.23000000E+00  1.21833921E-01  2.03856558E-01
   2.24000000E+00  1.23883031E-01  2.05966951E-01
   2.25000000E+00  1.25953291E-01  2.08086581E-01
   2.26000000E+00  1.28044793E-01  2.10215223E-01
   2.27000000E+00  1.30157625E-01  2.12352650E-01
   2.28000000E+00  1.32291874E-01  2.14498633E-01
   2.29000000E+00  1.34447625E-01  2.16652939E-01
   2.30000000E+00  1.36624960E-01  2.18815332E-01
   2.31000000E+00  1.38823958E-01  2.20985576E-01
   2.32000000E+00  1.41044697E-01  2.23163429E-01
   2.33000000E+00  1.43287251E-01  2.25348649E-01
   2.34000000E+00  1.45551694E-01  2.27540991E-01
   2.35000000E+00  1.47838094E-01  2.29740204E-01
   2.36000000E+00  1.50146520E-01  2.31946040E-01
   2.37000000E+00  1.52477036E-01  2.34158244E-01
   2.38000000E+00  1.54829705E-01  2.36376559E-01
   2.39000000E+00  1.57204587E-01  2.38600728E-01
   2.40000000E+00  1.59601738E-01  2.40830487E-01
   2.41000000E+00  1.62021214E-01  2.43065574E-01
   2.42000000E+00  1.64463066E-01  2.45305721E-01
   2.43000000E+00  1.66927344E-01  2.47550659E-01
   2.44000000E+00  1.69414095E-01  2.49800116E-01
   2.45000000E+00  1.71923361E-01  2.52053817E-01
   2.46000000E+00  1.74455184E-01  2.54311484E-01
   2.47000000E+00  1.77009603E-01  2.56572839E-01
   2.48000000E+00  1.79586652E-01  2.58837598E-01
   2.49000000E+00  1.82186365E-01  2.61105478E-01
   2.50000000E+00  1.84808771E-01  2.63376190E-01
   2.51000000E+00  1.87453898E-01  2.65649444E-01
   2.52000000E+00  1.90121768E-01  2.67924948E-01
   2.53000000E+00  1.92812403E-01  2.70202408E-01
   2.54000000E+00  1.95525821E-01  2.72481527E-01
   2.55000000E+00  1.98262038E-01  2.74762003E-01
   2.56000000E+00  2.01021065E-01  2.77043537E-01
   2.57000000E+00  2.03802911E-01  2.79325823E-01
   2.58000000E+00  2.06607583E-01  2.81608554E-01
   2.59000000E+00  2.09435083E-01  2.83891422E-01
   2.60000000E+00  2.12285411E-01  2.86174116E-01
   2.61000000E+00  2.15158564E-01  2.88456323E-01
   2.62000000E+00  2.18054535E-01  2.90737726E-01
   2.63000000E+00  2.20973314E-01  2.93018009E-01
   2.64000000E+00  2.23914890E-01  2.95296850E-01
   2.65000000E+00  2.26879245E-01  2.97573929E-01
   2.66000000E+00  2.29866362E-01  2.99848922E-01
   2.67000000E+00  2.32876216E-01  3.02121502E-01
   2.68000000E+00  2.35908783E-01  3.04391342E-01
   2.69000000E+00  2.38964032E-01  3.06658112E-01
   2.70000000E+00  2.42041933E-01  3.08921480E-01
   2.71000000E+00  2.45142450E-01  3.11181112E-01
   2.72000000E+00  2.48265542E-01  3.13436674E-01
   2.73000000E+00  2.51411168E-01  3.15687828E-01
   2.74000000E+00  2.54579283E-01  3.17934234E-01
   2.75000000E+00  2.57769836E-01  3.20175554E-01
   2.76000000E+00  2.60982776E-01  3.22411444E-01
   2.77000000E+00  2.64218046E-01  3.24641561E-01
   2.78000000E+00  2.67475587E-01  3.26865560E-01
   2.79000000E+00  2.70755335E-01  3.29083093E-01
   2.80000000E+00  2.74057226E-01  3.31293813E-01
   2.81000000E+00  2.77381188E-01  3.33497369E-01
   2.82000000E+00  2.80727148E-01  3.35693411E-01
   2.83000000E+00  2.84095030E-01  3.37881588E-01
   2.84000000E+00  2.87484752E-01  3.40061543E-01
   2.85000000E+00  2.90896232E-01  3.42232925E-01
   2.86000000E+00  2.94329381E-01  3.44395375E-01
   2.87000000E+00  2.97784109E-01  3.46548537E-01
   2.88000000E+00  3.01260320E-01  3.48692054E-01
   2.89000000E+00  3.04757916E-01  3.50825566E-01
   2.90000000E+00  3.08276797E-01  3.52948712E-01
   2.91000000E+00  3.11816855E-01  3.55061133E-01
   2.92000000E+00  3.15377982E-01  3.57162465E-01
   2.93000000E+00  3.18960066E-01  3.59252348E-01
   2.94000000E+00  3.22562990E-01  3.61330416E-01
   2.95000000E+00  3.26186634E-01  3.63396307E-01
   2.96000000E+00  3.29830874E-01  3.65449655E-01
   2.97000000E+00  3.33495584E-01  3.67490096E-01
   2.98000000E+00  3.37180632E-01  3.69517262E-01
   2.99000000E+00  3.40885884E-01  3.71530789E-01
   3.00000000E+00  3.44611201E-01  3.73530310E-01
   3.01000000E+00  3.48356442E-01  3.75515457E-01
   3.02000000E+00  3.52121461E-01  3.77485863E-01
   3.03000000E+00  3.55906109E-01  3.79441161E-01
   3.04000000E+00  3.59710233E-01  3.81380982E-01
   3.05000000E+00  3.63533676E-01  3.83304959E-01
   3.06000000E+00  3.67376278E-01  3.85212724E-01
   3.07000000E+00  3.71237875E-01  3.87103909E-01
   3.08000000E+00  3.75118299E-01  3.88978145E-01
   3.09000000E+00  3.79017380E-01  3.90835065E-01
   3.10000000E+00  3.82934942E-01  3.92674300E-01
   3.11000000E+00  3.86870806E-01  3.94495484E-01
   3.12000000E+00  3.90824790E-01  3.96298249E-01
   3.13000000E+00  3.94796708E-01  3.98082227E-01
   3.14000000E+00  3.98786371E-01  3.99847053E-01
   3.15000000E+00  4.02793584E-01  4.01592358E-01
   3.16000000E+00  4.06818152E-01  4.03317780E-01
   3.17000000E+00  4.10859872E-01  4.05022951E-01
   3.18000000E+00  4.14918542E-01  4.06707506E-01
   3.19000000E+00  4.18993952E-01  4.08371083E-01
   3.20000000E+00  4.23085892E-01  4.10013318E-01
   3.21000000E+00  4.27194146E-01  4.11633849E-01
   3.22000000E+00  4.31318496E-01  4.13232313E-01
   3.23000000E+00  4.35458718E-01  4.14808350E-01
   3.24000000E+00  4.39614587E-01  4.16361602E-01
   3.25000000E+00  4.43785873E-01  4.17891706E-01
   3.26000000E+00  4.47972343E-01  4.19398308E-01
   3.27000000E+00  4.52173759E-01  4.20881050E-01
   3.28000000E+00  4.56389883E-01  4.22339576E-01
   3.29000000E+00  4.60620469E-01  4.23773531E-01
   3.30000000E+00  4.64865270E-01  4.25182564E-01
   3.31000000E+00  4.69124036E-01  4.26566321E-01
   3.32000000E+00  4.73396511E-01  4.27924452E-01
   3.33000000E+00  4.77682439E-01  4.29256608E-01
   3.34000000E+00  4.81981556E-01  4.30562445E-01
   3.35000000E+00  4.86293599E-01  4.31841614E-01
   3.36000000E+00  4.90618298E-01  4.33093772E-01
   3.37000000E+00  4.94955383E-01  4.34318576E-01
   3.38000000E+00  4.99304577E-01  4.35515685E-01
   3.39000000E+00  5.03665603E-01  4.36684759E-01
   3.40000000E+00  5.08038178E-01  4.37825462E-01
   3.41000000E+00  5.12422017E-01  4.38937459E-01
   3.42000000E+00  5.16816830E-01  4.40020416E-01
   3.43000000E+00  5.21222327E-01  4.41074003E-01
   3.44000000E+00  5.25638211E-01  4.42097890E-01
   3.45000000E+00  5.30064185E-01  4.43091749E-01
   3.46000000E+00  5.34499945E-01  4.44055254E-01
   3.47000000E+00  5.38945188E-01  4.44988086E-01
   3.48000000E+00  5.43399604E-01  4.45889923E-01
   3.49000000E+00  5.47862882E-01  4.46760444E-01
   3.50000000E+00  5.52334707E-01  4.47599336E-01
   3.51000000E+00  5.56814762E-01  4.48406284E-01
   3.52000000E+00  5.61302725E-01  4.49180979E-01
   3.53000000E+00  5.65798273E-01  4.49923111E-01
   3.54000000E+00  5.70301078E-01  4.50632376E-01
   3.55000000E+00  5.74810810E-01  4.51308469E-01
   3.56000000E+00  5.79327136E-01  4.51951089E-01
   3.57000000E+00  5.83849719E-01  4.52559940E-01
   3.58000000E+00  5.88378221E-01  4.53134725E-01
   3.59000000E+00  5.92912299E-01  4.53675152E-01
   3.60000000E+00  5.97451609E-01  4.54180935E-01
   3.61000000E+00  6.01995801E-01  4.54651783E-01
   3.62000000E+00  6.06544527E-01  4.55087415E-01
   3.63000000E+00  6.11097431E-01  4.55487550E-01
   3.64000000E+00  6.15654159E-01  4.55851912E-01
   3.65000000E+00  6.20214349E-01  4.56180225E-01
   3.66000000E+00  6.24777642E-01  4.56472217E-01
   3.67000000E+00  6.29343672E-01  4.56727622E-01
   3.68000000E+00  6.33912072E-01  4.56946174E-01
   3.69000000E+00  6.38482472E-01  4.57127614E-01
   3.70000000E+00  6.43054499E-01  4.57271682E-01
   3.71000000E+00  6.47627780E-01  4.57378123E-01
   3.72000000E+00  6.52201936E-01  4.57446690E-01
   3.73000000E+00  6.56776587E-01  4.57477132E-01
   3.74000000E+00  6.61351350E-01  4.57469204E-01
   3.75000000E+00  6.65925842E-01  4.57422666E-01
   3.76000000E+00  6.70499674E-01  4.57337282E-01
   3.77000000E+00  6.75072457E-01  4.57212820E-01
   3.78000000E+00  6.79643799E-01  4.57049048E-01
   3.79000000E+00  6.84213306E-01  4.56845740E-01
   3.80000000E+00  6.88780582E-01  4.56602677E-01
   3.81000000E+00  6.93345227E-01  4.56319639E-01
   3.82000000E+00  6.97906841E-01  4.55996412E-01
   3.83000000E+00  7.02465020E-01  4.55632783E-01
   3.84000000E+00  7.07019361E-01  4.55228547E-01
   3.85000000E+00  7.11569455E-01  4.54783502E-01
   3.86000000E+00  7.16114894E-01  4.54297448E-01
   3.87000000E+00  7.20655267E-01  4.53770189E-01
   3.88000000E+00  7.25190160E-01  4.53201539E-01
   3.89000000E+00  7.29719159E-01  4.52591310E-01
   3.90000000E+00  7.34241847E-01  4.51939318E-01
