 # Radial wave functions calculated by RADIAL.
 # **** Schrodinger Eq. Numerical potential.
 #      Input potential file: potential_1T2y.dat  
 #      Free state: E= 1.359724E+00, L=   3  (EPS= 1.0E-15)
 #        Inner phase shift= 0.000000000000000E+00
 #      Coulomb phase shift=-7.646598492919899E-01  (ETA=-6.064006E-01)
 #      Matching radius: RAD(    6)= 5.000000000000000E-02
 #       R              P(R)            Q(R)
   0.00000000E+00  0.00000000E+00  0.00000000E+00
   1.00000000E-02  1.72915881E-09  6.91255319E-07
   2.00000000E-02  2.75935233E-08  5.51141948E-06
   3.00000000E-02  1.39334353E-07  1.85422072E-05
   4.00000000E-02  4.39223157E-07  4.38072017E-05
   5.00000000E-02  1.06949706E-06  8.52758731E-05
   6.00000000E-02  2.21179663E-06  1.46859103E-04
   7.00000000E-02  4.08657208E-06  2.32408066E-04
   8.00000000E-02  6.95248674E-06  3.45713599E-04
   9.00000000E-02  1.11058018E-05  4.90504333E-04
   1.00000000E-01  1.68797487E-05  6.70445490E-04
   1.10000000E-01  2.46438887E-05  8.89137592E-04
   1.20000000E-01  3.48034596E-05  1.15011519E-03
   1.30000000E-01  4.77987096E-05  1.45684564E-03
   1.40000000E-01  6.41042194E-05  1.81272788E-03
   1.50000000E-01  8.42282123E-05  2.22109129E-03
   1.60000000E-01  1.08711853E-04  2.68519452E-03
   1.70000000E-01  1.38128533E-04  3.20822442E-03
   1.80000000E-01  1.73083151E-04  3.79329491E-03
   1.90000000E-01  2.14211375E-04  4.44344601E-03
   2.00000000E-01  2.62178899E-04  5.16164275E-03
   2.10000000E-01  3.17680688E-04  5.95077428E-03
   2.20000000E-01  3.81440216E-04  6.81365283E-03
   2.30000000E-01  4.54208692E-04  7.75301290E-03
   2.40000000E-01  5.36764274E-04  8.77151031E-03
   2.50000000E-01  6.29911286E-04  9.87172140E-03
   2.60000000E-01  7.34479410E-04  1.10561422E-02
   2.70000000E-01  8.51322887E-04  1.23271876E-02
   2.80000000E-01  9.81319697E-04  1.36871908E-02
   2.90000000E-01  1.12537074E-03  1.51384024E-02
   3.00000000E-01  1.28439901E-03  1.66829898E-02
   3.10000000E-01  1.45934874E-03  1.83230366E-02
   3.20000000E-01  1.65118461E-03  2.00605419E-02
   3.30000000E-01  1.86089083E-03  2.18974200E-02
   3.40000000E-01  2.08947036E-03  2.38354996E-02
   3.50000000E-01  2.33794398E-03  2.58765231E-02
   3.60000000E-01  2.60734950E-03  2.80221469E-02
   3.70000000E-01  2.89874083E-03  3.02739402E-02
   3.80000000E-01  3.21318715E-03  3.26333849E-02
   3.90000000E-01  3.55177202E-03  3.51018754E-02
   4.00000000E-01  3.91559251E-03  3.76807182E-02
   4.10000000E-01  4.30575830E-03  4.03711313E-02
   4.20000000E-01  4.72339081E-03  4.31742444E-02
   4.30000000E-01  5.16962233E-03  4.60910984E-02
   4.40000000E-01  5.64559510E-03  4.91226456E-02
   4.50000000E-01  6.15246044E-03  5.22697489E-02
   4.60000000E-01  6.69137785E-03  5.55331824E-02
   4.70000000E-01  7.26351415E-03  5.89136308E-02
   4.80000000E-01  7.87004251E-03  6.24116896E-02
   4.90000000E-01  8.51214167E-03  6.60278653E-02
   5.00000000E-01  9.19099494E-03  6.97625750E-02
   5.10000000E-01  9.90778939E-03  7.36161467E-02
   5.20000000E-01  1.06637149E-02  7.75888195E-02
   5.30000000E-01  1.14599633E-02  8.16807436E-02
   5.40000000E-01  1.22977275E-02  8.58919804E-02
   5.50000000E-01  1.31782005E-02  9.02225029E-02
   5.60000000E-01  1.41025748E-02  9.46721959E-02
   5.70000000E-01  1.50720410E-02  9.92408562E-02
   5.80000000E-01  1.60877875E-02  1.03928193E-01
   5.90000000E-01  1.71509992E-02  1.08733828E-01
   6.00000000E-01  1.82628569E-02  1.13657296E-01
   6.10000000E-01  1.94245361E-02  1.18698046E-01
   6.20000000E-01  2.06372066E-02  1.23855440E-01
   6.30000000E-01  2.19020313E-02  1.29128754E-01
   6.40000000E-01  2.32201654E-02  1.34517181E-01
   6.50000000E-01  2.45927557E-02  1.40019827E-01
   6.60000000E-01  2.60209394E-02  1.45635716E-01
   6.70000000E-01  2.75058439E-02  1.51363787E-01
   6.80000000E-01  2.90485853E-02  1.57202898E-01
   6.90000000E-01  3.06502679E-02  1.63151823E-01
   7.00000000E-01  3.23119835E-02  1.69209256E-01
   7.10000000E-01  3.40348102E-02  1.75373811E-01
   7.20000000E-01  3.58198119E-02  1.81644020E-01
   7.30000000E-01  3.76680376E-02  1.88018337E-01
   7.40000000E-01  3.95805203E-02  1.94495138E-01
   7.50000000E-01  4.15582763E-02  2.01072723E-01
   7.60000000E-01  4.36023047E-02  2.07749311E-01
   7.70000000E-01  4.57135864E-02  2.14523051E-01
   7.80000000E-01  4.78930832E-02  2.21392013E-01
   7.90000000E-01  5.01417374E-02  2.28354196E-01
   8.00000000E-01  5.24604709E-02  2.35407524E-01
   8.10000000E-01  5.48501845E-02  2.42549851E-01
   8.20000000E-01  5.73117572E-02  2.49778960E-01
   8.30000000E-01  5.98460454E-02  2.57092563E-01
   8.40000000E-01  6.24538823E-02  2.64488306E-01
   8.50000000E-01  6.51360773E-02  2.71963766E-01
   8.60000000E-01  6.78934150E-02  2.79516453E-01
   8.70000000E-01  7.07266552E-02  2.87143813E-01
   8.80000000E-01  7.36365315E-02  2.94843229E-01
   8.90000000E-01  7.66237510E-02  3.02612019E-01
   9.00000000E-01  7.96889940E-02  3.10447441E-01
   9.10000000E-01  8.28329126E-02  3.18346694E-01
   9.20000000E-01  8.60561311E-02  3.26306915E-01
   9.30000000E-01  8.93592445E-02  3.34325187E-01
   9.40000000E-01  9.27428184E-02  3.42398533E-01
   9.50000000E-01  9.62073886E-02  3.50523923E-01
   9.60000000E-01  9.97534601E-02  3.58698275E-01
   9.70000000E-01  1.03381507E-01  3.66918452E-01
   9.80000000E-01  1.07091971E-01  3.75181267E-01
   9.90000000E-01  1.10885264E-01  3.83483485E-01
   1.00000000E+00  1.14761761E-01  3.91821822E-01
   1.01000000E+00  1.18721809E-01  4.00192947E-01
   1.02000000E+00  1.22765718E-01  4.08593485E-01
   1.03000000E+00  1.26893766E-01  4.17020017E-01
   1.04000000E+00  1.31106194E-01  4.25469082E-01
   1.05000000E+00  1.35403211E-01  4.33937179E-01
   1.06000000E+00  1.39784989E-01  4.42420767E-01
   1.07000000E+00  1.44251666E-01  4.50916269E-01
   1.08000000E+00  1.48803342E-01  4.59420071E-01
   1.09000000E+00  1.53440083E-01  4.67928525E-01
   1.10000000E+00  1.58161916E-01  4.76437951E-01
   1.11000000E+00  1.62968833E-01  4.84944637E-01
   1.12000000E+00  1.67860787E-01  4.93444842E-01
   1.13000000E+00  1.72837695E-01  5.01934796E-01
   1.14000000E+00  1.77899436E-01  5.10410706E-01
   1.15000000E+00  1.83045850E-01  5.18868750E-01
   1.16000000E+00  1.88276739E-01  5.27305086E-01
   1.17000000E+00  1.93591866E-01  5.35715850E-01
   1.18000000E+00  1.98990958E-01  5.44097158E-01
   1.19000000E+00  2.04473698E-01  5.52445109E-01
   1.20000000E+00  2.10039735E-01  5.60755784E-01
   1.21000000E+00  2.15688677E-01  5.69025251E-01
   1.22000000E+00  2.21420090E-01  5.77249564E-01
   1.23000000E+00  2.27233504E-01  5.85424767E-01
   1.24000000E+00  2.33128408E-01  5.93546893E-01
   1.25000000E+00  2.39104252E-01  6.01611967E-01
   1.26000000E+00  2.45160444E-01  6.09616011E-01
   1.27000000E+00  2.51296355E-01  6.17555037E-01
   1.28000000E+00  2.57511315E-01  6.25425060E-01
   1.29000000E+00  2.63804613E-01  6.33222091E-01
   1.30000000E+00  2.70175500E-01  6.40942141E-01
   1.31000000E+00  2.76623186E-01  6.48581224E-01
   1.32000000E+00  2.83146842E-01  6.56135360E-01
   1.33000000E+00  2.89745597E-01  6.63600573E-01
   1.34000000E+00  2.96418543E-01  6.70972894E-01
   1.35000000E+00  3.03164732E-01  6.78248364E-01
   1.36000000E+00  3.09983175E-01  6.85423034E-01
   1.37000000E+00  3.16872844E-01  6.92492969E-01
   1.38000000E+00  3.23832672E-01  6.99454248E-01
   1.39000000E+00  3.30861553E-01  7.06302965E-01
   1.40000000E+00  3.37958343E-01  7.13035231E-01
   1.41000000E+00  3.45121857E-01  7.19647177E-01
   1.42000000E+00  3.52350873E-01  7.26134956E-01
   1.43000000E+00  3.59644129E-01  7.32494743E-01
   1.44000000E+00  3.67000328E-01  7.38722736E-01
   1.45000000E+00  3.74418132E-01  7.44815159E-01
   1.46000000E+00  3.81896167E-01  7.50768265E-01
   1.47000000E+00  3.89433021E-01  7.56578335E-01
   1.48000000E+00  3.97027245E-01  7.62241681E-01
   1.49000000E+00  4.04677353E-01  7.67754647E-01
   1.50000000E+00  4.12381824E-01  7.73113610E-01
   1.51000000E+00  4.20139100E-01  7.78314985E-01
   1.52000000E+00  4.27947587E-01  7.83355221E-01
   1.53000000E+00  4.35805656E-01  7.88230807E-01
   1.54000000E+00  4.43711642E-01  7.92938273E-01
   1.55000000E+00  4.51663849E-01  7.97474189E-01
   1.56000000E+00  4.59660543E-01  8.01835169E-01
   1.57000000E+00  4.67699958E-01  8.06017871E-01
   1.58000000E+00  4.75780295E-01  8.10018999E-01
   1.59000000E+00  4.83899722E-01  8.13835305E-01
   1.60000000E+00  4.92056375E-01  8.17463590E-01
   1.61000000E+00  5.00248357E-01  8.20900705E-01
   1.62000000E+00  5.08473741E-01  8.24143553E-01
   1.63000000E+00  5.16730570E-01  8.27189091E-01
   1.64000000E+00  5.25016855E-01  8.30034328E-01
   1.65000000E+00  5.33330579E-01  8.32676331E-01
   1.66000000E+00  5.41669695E-01  8.35112225E-01
   1.67000000E+00  5.50032127E-01  8.37339191E-01
   1.68000000E+00  5.58415773E-01  8.39354472E-01
   1.69000000E+00  5.66818502E-01  8.41155370E-01
   1.70000000E+00  5.75238157E-01  8.42739252E-01
   1.71000000E+00  5.83672555E-01  8.44103546E-01
   1.72000000E+00  5.92119488E-01  8.45245747E-01
   1.73000000E+00  6.00576722E-01  8.46163413E-01
   1.74000000E+00  6.09042000E-01  8.46854173E-01
   1.75000000E+00  6.17513041E-01  8.47315722E-01
   1.76000000E+00  6.25987543E-01  8.47545823E-01
   1.77000000E+00  6.34463179E-01  8.47542312E-01
   1.78000000E+00  6.42937603E-01  8.47303095E-01
   1.79000000E+00  6.51408448E-01  8.46826152E-01
   1.80000000E+00  6.59873327E-01  8.46109534E-01
   1.81000000E+00  6.68329834E-01  8.45151370E-01
   1.82000000E+00  6.76775543E-01  8.43949861E-01
   1.83000000E+00  6.85208014E-01  8.42503287E-01
   1.84000000E+00  6.93624787E-01  8.40810004E-01
   1.85000000E+00  7.02023387E-01  8.38868447E-01
   1.86000000E+00  7.10401323E-01  8.36677129E-01
   1.87000000E+00  7.18756092E-01  8.34234644E-01
   1.88000000E+00  7.27085174E-01  8.31539667E-01
   1.89000000E+00  7.35386040E-01  8.28590952E-01
   1.90000000E+00  7.43656144E-01  8.25387339E-01
   1.91000000E+00  7.51892933E-01  8.21927747E-01
   1.92000000E+00  7.60093842E-01  8.18211182E-01
   1.93000000E+00  7.68256297E-01  8.14236732E-01
   1.94000000E+00  7.76377714E-01  8.10003570E-01
   1.95000000E+00  7.84455504E-01  8.05510957E-01
   1.96000000E+00  7.92487067E-01  8.00758237E-01
   1.97000000E+00  8.00469799E-01  7.95744842E-01
   1.98000000E+00  8.08401093E-01  7.90470291E-01
   1.99000000E+00  8.16278333E-01  7.84934190E-01
   2.00000000E+00  8.24098904E-01  7.79136234E-01
   2.01000000E+00  8.31860184E-01  7.73076206E-01
   2.02000000E+00  8.39559554E-01  7.66753978E-01
   2.03000000E+00  8.47194390E-01  7.60169510E-01
   2.04000000E+00  8.54762070E-01  7.53322854E-01
   2.05000000E+00  8.62259973E-01  7.46214148E-01
   2.06000000E+00  8.69685480E-01  7.38843625E-01
   2.07000000E+00  8.77035974E-01  7.31211603E-01
   2.08000000E+00  8.84308842E-01  7.23318495E-01
   2.09000000E+00  8.91501476E-01  7.15164802E-01
   2.10000000E+00  8.98611272E-01  7.06751117E-01
   2.11000000E+00  9.05635634E-01  6.98078122E-01
   2.12000000E+00  9.12571972E-01  6.89146593E-01
   2.13000000E+00  9.19417706E-01  6.79957395E-01
   2.14000000E+00  9.26170264E-01  6.70511484E-01
   2.15000000E+00  9.32827084E-01  6.60809907E-01
   2.16000000E+00  9.39385614E-01  6.50853802E-01
   2.17000000E+00  9.45843316E-01  6.40644400E-01
   2.18000000E+00  9.52197662E-01  6.30183020E-01
   2.19000000E+00  9.58446141E-01  6.19471071E-01
   2.20000000E+00  9.64586253E-01  6.08510056E-01
   2.21000000E+00  9.70615517E-01  5.97301565E-01
   2.22000000E+00  9.76531465E-01  5.85847279E-01
   2.23000000E+00  9.82331649E-01  5.74148969E-01
   2.24000000E+00  9.88013637E-01  5.62208494E-01
   2.25000000E+00  9.93575018E-01  5.50027803E-01
   2.26000000E+00  9.99013400E-01  5.37608936E-01
   2.27000000E+00  1.00432641E+00  5.24954016E-01
   2.28000000E+00  1.00951170E+00  5.12065258E-01
   2.29000000E+00  1.01456694E+00  4.98944962E-01
   2.30000000E+00  1.01948984E+00  4.85595518E-01
   2.31000000E+00  1.02427810E+00  4.72019399E-01
   2.32000000E+00  1.02892948E+00  4.58219164E-01
   2.33000000E+00  1.03344174E+00  4.44197460E-01
   2.34000000E+00  1.03781270E+00  4.29957016E-01
   2.35000000E+00  1.04204016E+00  4.15500645E-01
   2.36000000E+00  1.04612200E+00  4.00831245E-01
   2.37000000E+00  1.05005609E+00  3.85951795E-01
   2.38000000E+00  1.05384035E+00  3.70865356E-01
   2.39000000E+00  1.05747272E+00  3.55575071E-01
   2.40000000E+00  1.06095118E+00  3.40084163E-01
   2.41000000E+00  1.06427374E+00  3.24395933E-01
   2.42000000E+00  1.06743845E+00  3.08513763E-01
   2.43000000E+00  1.07044338E+00  2.92441111E-01
   2.44000000E+00  1.07328665E+00  2.76181511E-01
   2.45000000E+00  1.07596640E+00  2.59738576E-01
   2.46000000E+00  1.07848082E+00  2.43115991E-01
   2.47000000E+00  1.08082813E+00  2.26317517E-01
   2.48000000E+00  1.08300660E+00  2.09346985E-01
   2.49000000E+00  1.08501451E+00  1.92208303E-01
   2.50000000E+00  1.08685022E+00  1.74905444E-01
   2.51000000E+00  1.08851209E+00  1.57442454E-01
   2.52000000E+00  1.08999855E+00  1.39823449E-01
   2.53000000E+00  1.09130805E+00  1.22052608E-01
   2.54000000E+00  1.09243911E+00  1.04134181E-01
   2.55000000E+00  1.09339026E+00  8.60724806E-02
   2.56000000E+00  1.09416009E+00  6.78718833E-02
   2.57000000E+00  1.09474725E+00  4.95368292E-02
   2.58000000E+00  1.09515040E+00  3.10718195E-02
   2.59000000E+00  1.09536827E+00  1.24814155E-02
   2.60000000E+00  1.09539962E+00 -6.22976236E-03
   2.61000000E+00  1.09524328E+00 -2.50570365E-02
   2.62000000E+00  1.09489811E+00 -4.39956728E-02
   2.63000000E+00  1.09436301E+00 -6.30408825E-02
   2.64000000E+00  1.09363695E+00 -8.21878235E-02
   2.65000000E+00  1.09271894E+00 -1.01431601E-01
   2.66000000E+00  1.09160802E+00 -1.20767271E-01
   2.67000000E+00  1.09030330E+00 -1.40189839E-01
   2.68000000E+00  1.08880395E+00 -1.59694263E-01
   2.69000000E+00  1.08710916E+00 -1.79275455E-01
   2.70000000E+00  1.08521820E+00 -1.98928283E-01
   2.71000000E+00  1.08313037E+00 -2.18647571E-01
   2.72000000E+00  1.08084504E+00 -2.38428100E-01
   2.73000000E+00  1.07836162E+00 -2.58264615E-01
   2.74000000E+00  1.07567958E+00 -2.78151817E-01
   2.75000000E+00  1.07279844E+00 -2.98084375E-01
   2.76000000E+00  1.06971776E+00 -3.18056919E-01
   2.77000000E+00  1.06643718E+00 -3.38064048E-01
   2.78000000E+00  1.06295638E+00 -3.58100327E-01
   2.79000000E+00  1.05927510E+00 -3.78160291E-01
   2.80000000E+00  1.05539312E+00 -3.98238446E-01
   2.81000000E+00  1.05131029E+00 -4.18329272E-01
   2.82000000E+00  1.04702651E+00 -4.38427222E-01
   2.83000000E+00  1.04254174E+00 -4.58526726E-01
   2.84000000E+00  1.03785599E+00 -4.78622192E-01
   2.85000000E+00  1.03296932E+00 -4.98708006E-01
   2.86000000E+00  1.02788188E+00 -5.18778538E-01
   2.87000000E+00  1.02259382E+00 -5.38828139E-01
   2.88000000E+00  1.01710540E+00 -5.58851146E-01
   2.89000000E+00  1.01141691E+00 -5.78841880E-01
   2.90000000E+00  1.00552869E+00 -5.98794655E-01
   2.91000000E+00  9.99441160E-01 -6.18703770E-01
   2.92000000E+00  9.93154780E-01 -6.38563519E-01
   2.93000000E+00  9.86670074E-01 -6.58368189E-01
   2.94000000E+00  9.79987619E-01 -6.78112060E-01
   2.95000000E+00  9.73108054E-01 -6.97789413E-01
   2.96000000E+00  9.66032072E-01 -7.17394525E-01
   2.97000000E+00  9.58760423E-01 -7.36921674E-01
   2.98000000E+00  9.51293917E-01 -7.56365143E-01
   2.99000000E+00  9.43633419E-01 -7.75719215E-01
   3.00000000E+00  9.35779850E-01 -7.94978182E-01
   3.01000000E+00  9.27734191E-01 -8.14136344E-01
   3.02000000E+00  9.19497478E-01 -8.33188009E-01
   3.03000000E+00  9.11070805E-01 -8.52127498E-01
   3.04000000E+00  9.02455321E-01 -8.70949144E-01
   3.05000000E+00  8.93652233E-01 -8.89647296E-01
   3.06000000E+00  8.84662805E-01 -9.08216319E-01
   3.07000000E+00  8.75488356E-01 -9.26650596E-01
   3.08000000E+00  8.66130261E-01 -9.44944533E-01
   3.09000000E+00  8.56589952E-01 -9.63092556E-01
   3.10000000E+00  8.46868915E-01 -9.81089116E-01
   3.11000000E+00  8.36968693E-01 -9.98928688E-01
   3.12000000E+00  8.26890883E-01 -1.01660578E+00
   3.13000000E+00  8.16637137E-01 -1.03411491E+00
   3.14000000E+00  8.06209163E-01 -1.05145067E+00
   3.15000000E+00  7.95608720E-01 -1.06860763E+00
   3.16000000E+00  7.84837624E-01 -1.08558043E+00
   3.17000000E+00  7.73897743E-01 -1.10236375E+00
   3.18000000E+00  7.62790998E-01 -1.11895228E+00
   3.19000000E+00  7.51519364E-01 -1.13534077E+00
   3.20000000E+00  7.40084867E-01 -1.15152400E+00
   3.21000000E+00  7.28489585E-01 -1.16749682E+00
   3.22000000E+00  7.16735649E-01 -1.18325409E+00
   3.23000000E+00  7.04825239E-01 -1.19879073E+00
   3.24000000E+00  6.92760587E-01 -1.21410171E+00
   3.25000000E+00  6.80543974E-01 -1.22918205E+00
   3.26000000E+00  6.68177731E-01 -1.24402683E+00
   3.27000000E+00  6.55664239E-01 -1.25863117E+00
   3.28000000E+00  6.43005925E-01 -1.27299023E+00
   3.29000000E+00  6.30205267E-01 -1.28709927E+00
   3.30000000E+00  6.17264789E-01 -1.30095357E+00
   3.31000000E+00  6.04187061E-01 -1.31454849E+00
   3.32000000E+00  5.90974699E-01 -1.32787943E+00
   3.33000000E+00  5.77630367E-01 -1.34094188E+00
   3.34000000E+00  5.64156771E-01 -1.35373137E+00
   3.35000000E+00  5.50556664E-01 -1.36624350E+00
   3.36000000E+00  5.36832840E-01 -1.37847396E+00
   3.37000000E+00  5.22988138E-01 -1.39041848E+00
   3.38000000E+00  5.09025438E-01 -1.40207287E+00
   3.39000000E+00  4.94947661E-01 -1.41343302E+00
   3.40000000E+00  4.80757772E-01 -1.42449487E+00
   3.41000000E+00  4.66458771E-01 -1.43525446E+00
   3.42000000E+00  4.52053703E-01 -1.44570790E+00
   3.43000000E+00  4.37545647E-01 -1.45585136E+00
   3.44000000E+00  4.22937721E-01 -1.46568111E+00
   3.45000000E+00  4.08233082E-01 -1.47519348E+00
   3.46000000E+00  3.93434922E-01 -1.48438490E+00
   3.47000000E+00  3.78546466E-01 -1.49325186E+00
   3.48000000E+00  3.63570977E-01 -1.50179096E+00
   3.49000000E+00  3.48511751E-01 -1.50999886E+00
   3.50000000E+00  3.33372115E-01 -1.51787232E+00
   3.51000000E+00  3.18155430E-01 -1.52540818E+00
   3.52000000E+00  3.02865087E-01 -1.53260337E+00
   3.53000000E+00  2.87504508E-01 -1.53945492E+00
   3.54000000E+00  2.72077144E-01 -1.54595993E+00
   3.55000000E+00  2.56586474E-01 -1.55211560E+00
   3.56000000E+00  2.41036005E-01 -1.55791924E+00
   3.57000000E+00  2.25429271E-01 -1.56336821E+00
   3.58000000E+00  2.09769832E-01 -1.56846002E+00
   3.59000000E+00  1.94061270E-01 -1.57319223E+00
   3.60000000E+00  1.78307193E-01 -1.57756252E+00
   3.61000000E+00  1.62511233E-01 -1.58156865E+00
   3.62000000E+00  1.46677041E-01 -1.58520850E+00
   3.63000000E+00  1.30808291E-01 -1.58848003E+00
   3.64000000E+00  1.14908675E-01 -1.59138131E+00
   3.65000000E+00  9.89819049E-02 -1.59391051E+00
   3.66000000E+00  8.30317107E-02 -1.59606589E+00
   3.67000000E+00  6.70618387E-02 -1.59784582E+00
   3.68000000E+00  5.10760510E-02 -1.59924877E+00
   3.69000000E+00  3.50781246E-02 -1.60027333E+00
   3.70000000E+00  1.90718501E-02 -1.60091817E+00
   3.71000000E+00  3.06103098E-03 -1.60118207E+00
   3.72000000E+00 -1.29505179E-02 -1.60106393E+00
   3.73000000E+00 -2.89589708E-02 -1.60056274E+00
   3.74000000E+00 -4.49604928E-02 -1.59967760E+00
   3.75000000E+00 -6.09512403E-02 -1.59840771E+00
   3.76000000E+00 -7.69273623E-02 -1.59675240E+00
   3.77000000E+00 -9.28850016E-02 -1.59471108E+00
   3.78000000E+00 -1.08820296E-01 -1.59228329E+00
   3.79000000E+00 -1.24729378E-01 -1.58946866E+00
   3.80000000E+00 -1.40608379E-01 -1.58626693E+00
   3.81000000E+00 -1.56453426E-01 -1.58267798E+00
   3.82000000E+00 -1.72260647E-01 -1.57870175E+00
   3.83000000E+00 -1.88026170E-01 -1.57433832E+00
   3.84000000E+00 -2.03746124E-01 -1.56958788E+00
   3.85000000E+00 -2.19416639E-01 -1.56445072E+00
   3.86000000E+00 -2.35033850E-01 -1.55892725E+00
   3.87000000E+00 -2.50593898E-01 -1.55301796E+00
   3.88000000E+00 -2.66092926E-01 -1.54672350E+00
   3.89000000E+00 -2.81527086E-01 -1.54004458E+00
   3.90000000E+00 -2.96892539E-01 -1.53298206E+00
