 # Radial wave functions calculated by RADIAL.
 # **** Schrodinger Eq. Numerical potential.
 #      Input potential file: potential_1T2z.dat  
 #      Free state: E= 1.359724E+00, L=   5  (EPS= 1.0E-15)
 #        Inner phase shift= 4.257079206108649E-02
 #      Coulomb phase shift=-1.035833080447102E+00  (ETA=-6.064170E-01)
 #      Matching radius: RAD(  932)= 9.310000000000000E+00
 #       R              P(R)            Q(R)
   0.00000000E+00  0.00000000E+00  0.00000000E+00
   1.00000000E-02  8.89092667E-15  5.32583295E-12
   2.00000000E-02  5.63516775E-13  1.68512721E-10
   3.00000000E-02  6.35792072E-12  1.26558288E-09
   4.00000000E-02  3.53905728E-11  5.27581990E-09
   5.00000000E-02  1.33771976E-10  1.59311362E-08
   6.00000000E-02  3.95863271E-10  3.92335107E-08
   7.00000000E-02  9.89443741E-10  8.39438428E-08
   8.00000000E-02  2.18563581E-09  1.62045016E-07
   9.00000000E-02  4.39334146E-09  2.89181470E-07
   1.00000000E-01  8.19796488E-09  4.85077143E-07
   1.10000000E-01  1.44042127E-08  7.73933287E-07
   1.20000000E-01  2.40827772E-08  1.18480737E-06
   1.30000000E-01  3.86207174E-08  1.75197405E-06
   1.40000000E-01  5.97753642E-08  2.51526890E-06
   1.50000000E-01  8.97315798E-08  3.52041578E-06
   1.60000000E-01  1.31162209E-07  4.81933805E-06
   1.70000000E-01  1.87291568E-07  6.47045443E-06
   1.80000000E-01  2.61961811E-07  8.53895970E-06
   1.90000000E-01  3.59702037E-07  1.10970908E-05
   2.00000000E-01  4.85799978E-07  1.42243784E-05
   2.10000000E-01  6.46376139E-07  1.80078849E-05
   2.20000000E-01  8.48460249E-07  2.25424288E-05
   2.30000000E-01  1.10006988E-06  2.79307951E-05
   2.40000000E-01  1.41029113E-06  3.42839345E-05
   2.50000000E-01  1.78936120E-06  4.17211481E-05
   2.60000000E-01  2.24875280E-06  5.03702622E-05
   2.70000000E-01  2.80126018E-06  6.03677893E-05
   2.80000000E-01  3.46108680E-06  7.18590799E-05
   2.90000000E-01  4.24393440E-06  8.49984616E-05
   3.00000000E-01  5.16709342E-06  9.99493690E-05
   3.10000000E-01  6.24953469E-06  1.16884462E-04
   3.20000000E-01  7.51200223E-06  1.35985737E-04
   3.30000000E-01  8.97710708E-06  1.57444624E-04
   3.40000000E-01  1.06694222E-05  1.81462081E-04
   3.50000000E-01  1.26155781E-05  2.08248673E-04
   3.60000000E-01  1.48443592E-05  2.38024646E-04
   3.70000000E-01  1.73868012E-05  2.71019996E-04
   3.80000000E-01  2.02762886E-05  3.07474521E-04
   3.90000000E-01  2.35486532E-05  3.47637874E-04
   4.00000000E-01  2.72422729E-05  3.91769604E-04
   4.10000000E-01  3.13981704E-05  4.40139192E-04
   4.20000000E-01  3.60601133E-05  4.93026077E-04
   4.30000000E-01  4.12747132E-05  5.50719681E-04
   4.40000000E-01  4.70915262E-05  6.13519416E-04
   4.50000000E-01  5.35631523E-05  6.81734697E-04
   4.60000000E-01  6.07453356E-05  7.55684942E-04
   4.70000000E-01  6.86970646E-05  8.35699567E-04
   4.80000000E-01  7.74806717E-05  9.22117970E-04
   4.90000000E-01  8.71619334E-05  1.01528951E-03
   5.00000000E-01  9.78101691E-05  1.11557351E-03
   5.10000000E-01  1.09498341E-04  1.22333916E-03
   5.20000000E-01  1.22303154E-04  1.33896557E-03
   5.30000000E-01  1.36305150E-04  1.46284163E-03
   5.40000000E-01  1.51588813E-04  1.59536605E-03
   5.50000000E-01  1.68242660E-04  1.73694725E-03
   5.60000000E-01  1.86359340E-04  1.88800329E-03
   5.70000000E-01  2.06035733E-04  2.04896183E-03
   5.80000000E-01  2.27373041E-04  2.22026004E-03
   5.90000000E-01  2.50476887E-04  2.40234453E-03
   6.00000000E-01  2.75457405E-04  2.59567123E-03
   6.10000000E-01  3.02429335E-04  2.80070533E-03
   6.20000000E-01  3.31512116E-04  3.01792114E-03
   6.30000000E-01  3.62829974E-04  3.24780202E-03
   6.40000000E-01  3.96512013E-04  3.49084023E-03
   6.50000000E-01  4.32692305E-04  3.74753681E-03
   6.60000000E-01  4.71509975E-04  4.01840148E-03
   6.70000000E-01  5.13109288E-04  4.30395244E-03
   6.80000000E-01  5.57639733E-04  4.60471629E-03
   6.90000000E-01  6.05256106E-04  4.92122781E-03
   7.00000000E-01  6.56118590E-04  5.25402986E-03
   7.10000000E-01  7.10392839E-04  5.60367318E-03
   7.20000000E-01  7.68250052E-04  5.97071618E-03
   7.30000000E-01  8.29867048E-04  6.35572481E-03
   7.40000000E-01  8.95426344E-04  6.75927236E-03
   7.50000000E-01  9.65116225E-04  7.18193919E-03
   7.60000000E-01  1.03913082E-03  7.62431258E-03
   7.70000000E-01  1.11767014E-03  8.08698653E-03
   7.80000000E-01  1.20094022E-03  8.57056146E-03
   7.90000000E-01  1.28915306E-03  9.07564402E-03
   8.00000000E-01  1.38252683E-03  9.60284684E-03
   8.10000000E-01  1.48128580E-03  1.01527883E-02
   8.20000000E-01  1.58566047E-03  1.07260921E-02
   8.30000000E-01  1.69588761E-03  1.13233873E-02
   8.40000000E-01  1.81221030E-03  1.19453077E-02
   8.50000000E-01  1.93487798E-03  1.25924918E-02
   8.60000000E-01  2.06414649E-03  1.32655824E-02
   8.70000000E-01  2.20027813E-03  1.39652262E-02
   8.80000000E-01  2.34354169E-03  1.46920736E-02
   8.90000000E-01  2.49421246E-03  1.54467785E-02
   9.00000000E-01  2.65257231E-03  1.62299975E-02
   9.10000000E-01  2.81890966E-03  1.70423901E-02
   9.20000000E-01  2.99351956E-03  1.78846180E-02
   9.30000000E-01  3.17670368E-03  1.87573448E-02
   9.40000000E-01  3.36877034E-03  1.96612357E-02
   9.50000000E-01  3.57003450E-03  2.05969570E-02
   9.60000000E-01  3.78081780E-03  2.15651756E-02
   9.70000000E-01  4.00144856E-03  2.25665592E-02
   9.80000000E-01  4.23226176E-03  2.36017750E-02
   9.90000000E-01  4.47359906E-03  2.46714898E-02
   1.00000000E+00  4.72580877E-03  2.57763695E-02
   1.01000000E+00  4.98924588E-03  2.69170787E-02
   1.02000000E+00  5.26427198E-03  2.80942799E-02
   1.03000000E+00  5.55125532E-03  2.93086335E-02
   1.04000000E+00  5.85057069E-03  3.05607971E-02
   1.05000000E+00  6.16259947E-03  3.18514251E-02
   1.06000000E+00  6.48772957E-03  3.31811678E-02
   1.07000000E+00  6.82635537E-03  3.45506717E-02
   1.08000000E+00  7.17887768E-03  3.59605780E-02
   1.09000000E+00  7.54570373E-03  3.74115231E-02
   1.10000000E+00  7.92724704E-03  3.89041372E-02
   1.11000000E+00  8.32392745E-03  4.04390443E-02
   1.12000000E+00  8.73617096E-03  4.20168614E-02
   1.13000000E+00  9.16440974E-03  4.36381980E-02
   1.14000000E+00  9.60908199E-03  4.53036557E-02
   1.15000000E+00  1.00706319E-02  4.70138271E-02
   1.16000000E+00  1.05495095E-02  4.87692961E-02
   1.17000000E+00  1.10461707E-02  5.05706365E-02
   1.18000000E+00  1.15610770E-02  5.24184116E-02
   1.19000000E+00  1.20946956E-02  5.43131740E-02
   1.20000000E+00  1.26474990E-02  5.62554647E-02
   1.21000000E+00  1.32199651E-02  5.82458121E-02
   1.22000000E+00  1.38125771E-02  6.02847321E-02
   1.23000000E+00  1.44258233E-02  6.23727271E-02
   1.24000000E+00  1.50601969E-02  6.45102851E-02
   1.25000000E+00  1.57161958E-02  6.66978797E-02
   1.26000000E+00  1.63943228E-02  6.89359688E-02
   1.27000000E+00  1.70950850E-02  7.12249946E-02
   1.28000000E+00  1.78189939E-02  7.35653821E-02
   1.29000000E+00  1.85665652E-02  7.59575394E-02
   1.30000000E+00  1.93383185E-02  7.84018563E-02
   1.31000000E+00  2.01347774E-02  8.08987040E-02
   1.32000000E+00  2.09564689E-02  8.34484342E-02
   1.33000000E+00  2.18039235E-02  8.60513786E-02
   1.34000000E+00  2.26776749E-02  8.87078483E-02
   1.35000000E+00  2.35782598E-02  9.14181329E-02
   1.36000000E+00  2.45062178E-02  9.41824998E-02
   1.37000000E+00  2.54620909E-02  9.70011938E-02
   1.38000000E+00  2.64464235E-02  9.98744362E-02
   1.39000000E+00  2.74597621E-02  1.02802424E-01
   1.40000000E+00  2.85026551E-02  1.05785330E-01
   1.41000000E+00  2.95756523E-02  1.08823300E-01
   1.42000000E+00  3.06793050E-02  1.11916456E-01
   1.43000000E+00  3.18141656E-02  1.15064890E-01
   1.44000000E+00  3.29807873E-02  1.18268671E-01
   1.45000000E+00  3.41797237E-02  1.21527835E-01
   1.46000000E+00  3.54115286E-02  1.24842391E-01
   1.47000000E+00  3.66767561E-02  1.28212320E-01
   1.48000000E+00  3.79759595E-02  1.31637571E-01
   1.49000000E+00  3.93096916E-02  1.35118062E-01
   1.50000000E+00  4.06785045E-02  1.38653681E-01
   1.51000000E+00  4.20829485E-02  1.42244283E-01
   1.52000000E+00  4.35235728E-02  1.45889689E-01
   1.53000000E+00  4.50009243E-02  1.49589690E-01
   1.54000000E+00  4.65155478E-02  1.53344038E-01
   1.55000000E+00  4.80679853E-02  1.57152456E-01
   1.56000000E+00  4.96587761E-02  1.61014626E-01
   1.57000000E+00  5.12884558E-02  1.64930200E-01
   1.58000000E+00  5.29575568E-02  1.68898788E-01
   1.59000000E+00  5.46666069E-02  1.72919967E-01
   1.60000000E+00  5.64161299E-02  1.76993275E-01
   1.61000000E+00  5.82066445E-02  1.81118211E-01
   1.62000000E+00  6.00386644E-02  1.85294237E-01
   1.63000000E+00  6.19126976E-02  1.89520775E-01
   1.64000000E+00  6.38292462E-02  1.93797208E-01
   1.65000000E+00  6.57888059E-02  1.98122877E-01
   1.66000000E+00  6.77918656E-02  2.02497085E-01
   1.67000000E+00  6.98389069E-02  2.06919091E-01
   1.68000000E+00  7.19304041E-02  2.11388115E-01
   1.69000000E+00  7.40668232E-02  2.15903333E-01
   1.70000000E+00  7.62486219E-02  2.20463880E-01
   1.71000000E+00  7.84762489E-02  2.25068848E-01
   1.72000000E+00  8.07501438E-02  2.29717286E-01
   1.73000000E+00  8.30707362E-02  2.34408197E-01
   1.74000000E+00  8.54384458E-02  2.39140544E-01
   1.75000000E+00  8.78536816E-02  2.43913244E-01
   1.76000000E+00  9.03168415E-02  2.48725168E-01
   1.77000000E+00  9.28283118E-02  2.53575146E-01
   1.78000000E+00  9.53884672E-02  2.58461959E-01
   1.79000000E+00  9.79976696E-02  2.63384345E-01
   1.80000000E+00  1.00656268E-01  2.68340997E-01
   1.81000000E+00  1.03364599E-01  2.73330561E-01
   1.82000000E+00  1.06122985E-01  2.78351638E-01
   1.83000000E+00  1.08931732E-01  2.83402783E-01
   1.84000000E+00  1.11791135E-01  2.88482506E-01
   1.85000000E+00  1.14701472E-01  2.93589270E-01
   1.86000000E+00  1.17663006E-01  2.98721491E-01
   1.87000000E+00  1.20675982E-01  3.03877542E-01
   1.88000000E+00  1.23740630E-01  3.09055746E-01
   1.89000000E+00  1.26857165E-01  3.14254384E-01
   1.90000000E+00  1.30025780E-01  3.19471688E-01
   1.91000000E+00  1.33246655E-01  3.24705845E-01
   1.92000000E+00  1.36519947E-01  3.29954997E-01
   1.93000000E+00  1.39845798E-01  3.35217240E-01
   1.94000000E+00  1.43224329E-01  3.40490625E-01
   1.95000000E+00  1.46655641E-01  3.45773158E-01
   1.96000000E+00  1.50139816E-01  3.51062799E-01
   1.97000000E+00  1.53676914E-01  3.56357464E-01
   1.98000000E+00  1.57266975E-01  3.61655025E-01
   1.99000000E+00  1.60910017E-01  3.66953311E-01
   2.00000000E+00  1.64606036E-01  3.72250106E-01
   2.01000000E+00  1.68355007E-01  3.77543151E-01
   2.02000000E+00  1.72156879E-01  3.82830146E-01
   2.03000000E+00  1.76011582E-01  3.88108747E-01
   2.04000000E+00  1.79919018E-01  3.93376569E-01
   2.05000000E+00  1.83879069E-01  3.98631186E-01
   2.06000000E+00  1.87891590E-01  4.03870133E-01
   2.07000000E+00  1.91956411E-01  4.09090902E-01
   2.08000000E+00  1.96073339E-01  4.14290934E-01
   2.09000000E+00  2.00242213E-01  4.19485986E-01
   2.10000000E+00  2.04463097E-01  4.24692578E-01
   2.11000000E+00  2.08736098E-01  4.29909249E-01
   2.12000000E+00  2.13061310E-01  4.35134540E-01
   2.13000000E+00  2.17438813E-01  4.40366975E-01
   2.14000000E+00  2.21868669E-01  4.45605059E-01
   2.15000000E+00  2.26350928E-01  4.50847282E-01
   2.16000000E+00  2.30885623E-01  4.56092120E-01
   2.17000000E+00  2.35472774E-01  4.61338029E-01
   2.18000000E+00  2.40112382E-01  4.66583451E-01
   2.19000000E+00  2.44804436E-01  4.71826812E-01
   2.20000000E+00  2.49548906E-01  4.77066521E-01
   2.21000000E+00  2.54345749E-01  4.82300973E-01
   2.22000000E+00  2.59194903E-01  4.87528544E-01
   2.23000000E+00  2.64096291E-01  4.92747598E-01
   2.24000000E+00  2.69049821E-01  4.97956483E-01
   2.25000000E+00  2.74055381E-01  5.03153532E-01
   2.26000000E+00  2.79112846E-01  5.08337063E-01
   2.27000000E+00  2.84222072E-01  5.13505379E-01
   2.28000000E+00  2.89382897E-01  5.18656769E-01
   2.29000000E+00  2.94595145E-01  5.23789508E-01
   2.30000000E+00  2.99858620E-01  5.28901859E-01
   2.31000000E+00  3.05173109E-01  5.33992070E-01
   2.32000000E+00  3.10538381E-01  5.39058375E-01
   2.33000000E+00  3.15954190E-01  5.44098997E-01
   2.34000000E+00  3.21420270E-01  5.49112146E-01
   2.35000000E+00  3.26936336E-01  5.54096021E-01
   2.36000000E+00  3.32502087E-01  5.59048808E-01
   2.37000000E+00  3.38117202E-01  5.63968681E-01
   2.38000000E+00  3.43781344E-01  5.68853806E-01
   2.39000000E+00  3.49494156E-01  5.73702337E-01
   2.40000000E+00  3.55255263E-01  5.78512416E-01
   2.41000000E+00  3.61064270E-01  5.83282179E-01
   2.42000000E+00  3.66920766E-01  5.88009751E-01
   2.43000000E+00  3.72824318E-01  5.92693247E-01
   2.44000000E+00  3.78774478E-01  5.97330778E-01
   2.45000000E+00  3.84770774E-01  6.01920442E-01
   2.46000000E+00  3.90812721E-01  6.06460334E-01
   2.47000000E+00  3.96899809E-01  6.10948539E-01
   2.48000000E+00  4.03031513E-01  6.15383139E-01
   2.49000000E+00  4.09207286E-01  6.19762206E-01
   2.50000000E+00  4.15426565E-01  6.24083811E-01
   2.51000000E+00  4.21688765E-01  6.28346018E-01
   2.52000000E+00  4.27993281E-01  6.32546888E-01
   2.53000000E+00  4.34339492E-01  6.36684479E-01
   2.54000000E+00  4.40726753E-01  6.40756842E-01
   2.55000000E+00  4.47154404E-01  6.44762031E-01
   2.56000000E+00  4.53621763E-01  6.48698093E-01
   2.57000000E+00  4.60128129E-01  6.52563079E-01
   2.58000000E+00  4.66672782E-01  6.56355035E-01
   2.59000000E+00  4.73254980E-01  6.60072009E-01
   2.60000000E+00  4.79873965E-01  6.63712049E-01
   2.61000000E+00  4.86528958E-01  6.67273204E-01
   2.62000000E+00  4.93219160E-01  6.70753525E-01
   2.63000000E+00  4.99943753E-01  6.74151065E-01
   2.64000000E+00  5.06701899E-01  6.77463881E-01
   2.65000000E+00  5.13492741E-01  6.80690033E-01
   2.66000000E+00  5.20315404E-01  6.83827585E-01
   2.67000000E+00  5.27168991E-01  6.86874606E-01
   2.68000000E+00  5.34052588E-01  6.89829172E-01
   2.69000000E+00  5.40965260E-01  6.92689362E-01
   2.70000000E+00  5.47906054E-01  6.95453267E-01
   2.71000000E+00  5.54873998E-01  6.98118980E-01
   2.72000000E+00  5.61868100E-01  7.00684607E-01
   2.73000000E+00  5.68887350E-01  7.03148259E-01
   2.74000000E+00  5.75930719E-01  7.05508061E-01
   2.75000000E+00  5.82997159E-01  7.07762144E-01
   2.76000000E+00  5.90085604E-01  7.09908653E-01
   2.77000000E+00  5.97194968E-01  7.11945743E-01
   2.78000000E+00  6.04324148E-01  7.13871582E-01
   2.79000000E+00  6.11472022E-01  7.15684350E-01
   2.80000000E+00  6.18637452E-01  7.17382243E-01
   2.81000000E+00  6.25819278E-01  7.18963471E-01
   2.82000000E+00  6.33016326E-01  7.20426257E-01
   2.83000000E+00  6.40227403E-01  7.21768841E-01
   2.84000000E+00  6.47451297E-01  7.22989479E-01
   2.85000000E+00  6.54686780E-01  7.24086448E-01
   2.86000000E+00  6.61932608E-01  7.25058037E-01
   2.87000000E+00  6.69187517E-01  7.25902560E-01
   2.88000000E+00  6.76450230E-01  7.26618343E-01
   2.89000000E+00  6.83719450E-01  7.27203738E-01
   2.90000000E+00  6.90993865E-01  7.27657115E-01
   2.91000000E+00  6.98272146E-01  7.27976867E-01
   2.92000000E+00  7.05552951E-01  7.28161408E-01
   2.93000000E+00  7.12834919E-01  7.28209173E-01
   2.94000000E+00  7.20116674E-01  7.28118625E-01
   2.95000000E+00  7.27396825E-01  7.27888246E-01
   2.96000000E+00  7.34673967E-01  7.27516548E-01
   2.97000000E+00  7.41946680E-01  7.27002066E-01
   2.98000000E+00  7.49213528E-01  7.26343359E-01
   2.99000000E+00  7.56473062E-01  7.25539017E-01
   3.00000000E+00  7.63723818E-01  7.24587654E-01
   3.01000000E+00  7.70964320E-01  7.23487915E-01
   3.02000000E+00  7.78193078E-01  7.22238471E-01
   3.03000000E+00  7.85408586E-01  7.20838026E-01
   3.04000000E+00  7.92609330E-01  7.19285311E-01
   3.05000000E+00  7.99793781E-01  7.17579090E-01
   3.06000000E+00  8.06960397E-01  7.15718157E-01
   3.07000000E+00  8.14107624E-01  7.13701340E-01
   3.08000000E+00  8.21233900E-01  7.11527497E-01
   3.09000000E+00  8.28337647E-01  7.09195521E-01
   3.10000000E+00  8.35417280E-01  7.06704339E-01
   3.11000000E+00  8.42471200E-01  7.04052910E-01
   3.12000000E+00  8.49497800E-01  7.01240232E-01
   3.13000000E+00  8.56495464E-01  6.98265334E-01
   3.14000000E+00  8.63462563E-01  6.95127289E-01
   3.15000000E+00  8.70397463E-01  6.91825203E-01
   3.16000000E+00  8.77298518E-01  6.88358213E-01
   3.17000000E+00  8.84164075E-01  6.84725500E-01
   3.18000000E+00  8.90992473E-01  6.80926288E-01
   3.19000000E+00  8.97782043E-01  6.76959834E-01
   3.20000000E+00  9.04531109E-01  6.72825433E-01
   3.21000000E+00  9.11237990E-01  6.68522426E-01
   3.22000000E+00  9.17900994E-01  6.64050188E-01
   3.23000000E+00  9.24518427E-01  6.59408143E-01
   3.24000000E+00  9.31088589E-01  6.54595751E-01
   3.25000000E+00  9.37609773E-01  6.49612516E-01
   3.26000000E+00  9.44080268E-01  6.44457981E-01
   3.27000000E+00  9.50498360E-01  6.39131738E-01
   3.28000000E+00  9.56862329E-01  6.33633422E-01
   3.29000000E+00  9.63170454E-01  6.27962708E-01
   3.30000000E+00  9.69421008E-01  6.22119317E-01
   3.31000000E+00  9.75612264E-01  6.16103014E-01
   3.32000000E+00  9.81742491E-01  6.09913614E-01
   3.33000000E+00  9.87809959E-01  6.03550975E-01
   3.34000000E+00  9.93812933E-01  5.97014995E-01
   3.35000000E+00  9.99749681E-01  5.90305627E-01
   3.36000000E+00  1.00561847E+00  5.83422864E-01
   3.37000000E+00  1.01141756E+00  5.76366749E-01
   3.38000000E+00  1.01714522E+00  5.69137372E-01
   3.39000000E+00  1.02279973E+00  5.61734871E-01
   3.40000000E+00  1.02837935E+00  5.54159434E-01
   3.41000000E+00  1.03388234E+00  5.46411298E-01
   3.42000000E+00  1.03930700E+00  5.38490743E-01
   3.43000000E+00  1.04465158E+00  5.30398103E-01
   3.44000000E+00  1.04991439E+00  5.22133759E-01
   3.45000000E+00  1.05509369E+00  5.13698140E-01
   3.46000000E+00  1.06018778E+00  5.05091727E-01
   3.47000000E+00  1.06519496E+00  4.96315044E-01
   3.48000000E+00  1.07011352E+00  4.87368675E-01
   3.49000000E+00  1.07494177E+00  4.78253250E-01
   3.50000000E+00  1.07967802E+00  4.68969450E-01
   3.51000000E+00  1.08432060E+00  4.59518004E-01
   3.52000000E+00  1.08886782E+00  4.49899692E-01
   3.53000000E+00  1.09331804E+00  4.40115346E-01
   3.54000000E+00  1.09766958E+00  4.30165846E-01
   3.55000000E+00  1.10192081E+00  4.20052130E-01
   3.56000000E+00  1.10607008E+00  4.09775183E-01
   3.57000000E+00  1.11011577E+00  3.99336037E-01
   3.58000000E+00  1.11405626E+00  3.88735781E-01
   3.59000000E+00  1.11788995E+00  3.77975549E-01
   3.60000000E+00  1.12161524E+00  3.67056530E-01
   3.61000000E+00  1.12523056E+00  3.55979965E-01
   3.62000000E+00  1.12873432E+00  3.44747143E-01
   3.63000000E+00  1.13212498E+00  3.33359408E-01
   3.64000000E+00  1.13540100E+00  3.21818150E-01
   3.65000000E+00  1.13856084E+00  3.10124815E-01
   3.66000000E+00  1.14160299E+00  2.98280894E-01
   3.67000000E+00  1.14452596E+00  2.86287933E-01
   3.68000000E+00  1.14732826E+00  2.74147532E-01
   3.69000000E+00  1.15000842E+00  2.61861331E-01
   3.70000000E+00  1.15256501E+00  2.49431028E-01
   3.71000000E+00  1.15499657E+00  2.36858368E-01
   3.72000000E+00  1.15730170E+00  2.24145151E-01
   3.73000000E+00  1.15947901E+00  2.11293221E-01
   3.74000000E+00  1.16152711E+00  1.98304472E-01
   3.75000000E+00  1.16344465E+00  1.85180851E-01
   3.76000000E+00  1.16523029E+00  1.71924352E-01
   3.77000000E+00  1.16688270E+00  1.58537018E-01
   3.78000000E+00  1.16840060E+00  1.45020943E-01
   3.79000000E+00  1.16978270E+00  1.31378264E-01
   3.80000000E+00  1.17102775E+00  1.17611166E-01
   3.81000000E+00  1.17213452E+00  1.03721884E-01
   3.82000000E+00  1.17310179E+00  8.97127021E-02
   3.83000000E+00  1.17392838E+00  7.55859525E-02
   3.84000000E+00  1.17461312E+00  6.13440100E-02
   3.85000000E+00  1.17515488E+00  4.69892937E-02
   3.86000000E+00  1.17555254E+00  3.25242716E-02
   3.87000000E+00  1.17580501E+00  1.79514546E-02
   3.88000000E+00  1.17591122E+00  3.27340088E-03
   3.89000000E+00  1.17587013E+00 -1.15072840E-02
   3.90000000E+00  1.17568074E+00 -2.63879562E-02
