 # Radial wave functions calculated by RADIAL.
 # **** Schrodinger Eq. Numerical potential.
 #      Input potential file: potential_1T2x.dat  
 #      Free state: E= 1.359724E+00, L=   5  (EPS= 1.0E-15)
 #        Inner phase shift= 4.257006873241931E-02
 #      Coulomb phase shift=-1.035833080447102E+00  (ETA=-6.064170E-01)
 #      Matching radius: RAD(  850)= 8.490000000000000E+00
 #       R              P(R)            Q(R)
   0.00000000E+00  0.00000000E+00  0.00000000E+00
   1.00000000E-02  8.89090218E-15  5.32581828E-12
   2.00000000E-02  5.63515223E-13  1.68512257E-10
   3.00000000E-02  6.35790320E-12  1.26557939E-09
   4.00000000E-02  3.53904754E-11  5.27580537E-09
   5.00000000E-02  1.33771608E-10  1.59310924E-08
   6.00000000E-02  3.95862181E-10  3.92334027E-08
   7.00000000E-02  9.89441018E-10  8.39436118E-08
   8.00000000E-02  2.18562979E-09  1.62044571E-07
   9.00000000E-02  4.39332937E-09  2.89180675E-07
   1.00000000E-01  8.19794232E-09  4.85075808E-07
   1.10000000E-01  1.44041731E-08  7.73931159E-07
   1.20000000E-01  2.40827110E-08  1.18480412E-06
   1.30000000E-01  3.86206112E-08  1.75196924E-06
   1.40000000E-01  5.97752000E-08  2.51526200E-06
   1.50000000E-01  8.97313334E-08  3.52040613E-06
   1.60000000E-01  1.31161849E-07  4.81932485E-06
   1.70000000E-01  1.87291055E-07  6.47043672E-06
   1.80000000E-01  2.61961094E-07  8.53893634E-06
   1.90000000E-01  3.59701052E-07  1.10970604E-05
   2.00000000E-01  4.85798649E-07  1.42243395E-05
   2.10000000E-01  6.46374371E-07  1.80078358E-05
   2.20000000E-01  8.48457929E-07  2.25423673E-05
   2.30000000E-01  1.10006688E-06  2.79307190E-05
   2.40000000E-01  1.41028728E-06  3.42838411E-05
   2.50000000E-01  1.78935632E-06  4.17210346E-05
   2.60000000E-01  2.24874667E-06  5.03701253E-05
   2.70000000E-01  2.80125255E-06  6.03676256E-05
   2.80000000E-01  3.46107738E-06  7.18588853E-05
   2.90000000E-01  4.24392286E-06  8.49982318E-05
   3.00000000E-01  5.16707939E-06  9.99490991E-05
   3.10000000E-01  6.24951774E-06  1.16884147E-04
   3.20000000E-01  7.51198187E-06  1.35985371E-04
   3.30000000E-01  8.97708279E-06  1.57444201E-04
   3.40000000E-01  1.06693934E-05  1.81461594E-04
   3.50000000E-01  1.26155440E-05  2.08248115E-04
   3.60000000E-01  1.48443191E-05  2.38024009E-04
   3.70000000E-01  1.73867543E-05  2.71019272E-04
   3.80000000E-01  2.02762340E-05  3.07473701E-04
   3.90000000E-01  2.35485900E-05  3.47636948E-04
   4.00000000E-01  2.72421998E-05  3.91768562E-04
   4.10000000E-01  3.13980863E-05  4.40138023E-04
   4.20000000E-01  3.60600168E-05  4.93024770E-04
   4.30000000E-01  4.12746029E-05  5.50718223E-04
   4.40000000E-01  4.70914005E-05  6.13517794E-04
   4.50000000E-01  5.35630095E-05  6.81732899E-04
   4.60000000E-01  6.07451739E-05  7.55682954E-04
   4.70000000E-01  6.86968820E-05  8.35697372E-04
   4.80000000E-01  7.74804661E-05  9.22115551E-04
   4.90000000E-01  8.71617023E-05  1.01528686E-03
   5.00000000E-01  9.78099102E-05  1.11557059E-03
   5.10000000E-01  1.09498052E-04  1.22333597E-03
   5.20000000E-01  1.22302831E-04  1.33896208E-03
   5.30000000E-01  1.36304791E-04  1.46283784E-03
   5.40000000E-01  1.51588414E-04  1.59536192E-03
   5.50000000E-01  1.68242218E-04  1.73694276E-03
   5.60000000E-01  1.86358851E-04  1.88799843E-03
   5.70000000E-01  2.06035194E-04  2.04895657E-03
   5.80000000E-01  2.27372447E-04  2.22025436E-03
   5.90000000E-01  2.50476234E-04  2.40233840E-03
   6.00000000E-01  2.75456688E-04  2.59566462E-03
   6.10000000E-01  3.02428550E-04  2.80069822E-03
   6.20000000E-01  3.31511257E-04  3.01791351E-03
   6.30000000E-01  3.62829036E-04  3.24779383E-03
   6.40000000E-01  3.96510990E-04  3.49083145E-03
   6.50000000E-01  4.32691192E-04  3.74752743E-03
   6.60000000E-01  4.71508765E-04  4.01839144E-03
   6.70000000E-01  5.13107974E-04  4.30394172E-03
   6.80000000E-01  5.57638308E-04  4.60470485E-03
   6.90000000E-01  6.05254562E-04  4.92121562E-03
   7.00000000E-01  6.56116921E-04  5.25401689E-03
   7.10000000E-01  7.10391036E-04  5.60365938E-03
   7.20000000E-01  7.68248106E-04  5.97070152E-03
   7.30000000E-01  8.29864951E-04  6.35570927E-03
   7.40000000E-01  8.95424087E-04  6.75925587E-03
   7.50000000E-01  9.65113799E-04  7.18192174E-03
   7.60000000E-01  1.03912821E-03  7.62429413E-03
   7.70000000E-01  1.11766735E-03  8.08696703E-03
   7.80000000E-01  1.20093722E-03  8.57054087E-03
   7.90000000E-01  1.28914986E-03  9.07562231E-03
   8.00000000E-01  1.38252340E-03  9.60282398E-03
   8.10000000E-01  1.48128213E-03  1.01527642E-02
   8.20000000E-01  1.58565656E-03  1.07260668E-02
   8.30000000E-01  1.69588344E-03  1.13233606E-02
   8.40000000E-01  1.81220585E-03  1.19452797E-02
   8.50000000E-01  1.93487324E-03  1.25924624E-02
   8.60000000E-01  2.06414146E-03  1.32655515E-02
   8.70000000E-01  2.20027278E-03  1.39651938E-02
   8.80000000E-01  2.34353601E-03  1.46920397E-02
   8.90000000E-01  2.49420644E-03  1.54467430E-02
   9.00000000E-01  2.65256592E-03  1.62299604E-02
   9.10000000E-01  2.81890289E-03  1.70423513E-02
   9.20000000E-01  2.99351239E-03  1.78845775E-02
   9.30000000E-01  3.17669610E-03  1.87573025E-02
   9.40000000E-01  3.36876233E-03  1.96611916E-02
   9.50000000E-01  3.57002604E-03  2.05969110E-02
   9.60000000E-01  3.78080887E-03  2.15651278E-02
   9.70000000E-01  4.00143914E-03  2.25665094E-02
   9.80000000E-01  4.23225183E-03  2.36017232E-02
   9.90000000E-01  4.47358860E-03  2.46714359E-02
   1.00000000E+00  4.72579777E-03  2.57763136E-02
   1.01000000E+00  4.98923431E-03  2.69170205E-02
   1.02000000E+00  5.26425982E-03  2.80942195E-02
   1.03000000E+00  5.55124254E-03  2.93085709E-02
   1.04000000E+00  5.85055727E-03  3.05607322E-02
   1.05000000E+00  6.16258540E-03  3.18513578E-02
   1.06000000E+00  6.48771481E-03  3.31810981E-02
   1.07000000E+00  6.82633990E-03  3.45505995E-02
   1.08000000E+00  7.17886148E-03  3.59605034E-02
   1.09000000E+00  7.54568676E-03  3.74114460E-02
   1.10000000E+00  7.92722929E-03  3.89040575E-02
   1.11000000E+00  8.32390889E-03  4.04389620E-02
   1.12000000E+00  8.73615157E-03  4.20167764E-02
   1.13000000E+00  9.16438948E-03  4.36381102E-02
   1.14000000E+00  9.60906084E-03  4.53035651E-02
   1.15000000E+00  1.00706098E-02  4.70137337E-02
   1.16000000E+00  1.05494865E-02  4.87691999E-02
   1.17000000E+00  1.10461467E-02  5.05705373E-02
   1.18000000E+00  1.15610520E-02  5.24183096E-02
   1.19000000E+00  1.20946695E-02  5.43130691E-02
   1.20000000E+00  1.26474718E-02  5.62553567E-02
   1.21000000E+00  1.32199369E-02  5.82457010E-02
   1.22000000E+00  1.38125478E-02  6.02846180E-02
   1.23000000E+00  1.44257928E-02  6.23726097E-02
   1.24000000E+00  1.50601652E-02  6.45101646E-02
   1.25000000E+00  1.57161629E-02  6.66977560E-02
   1.26000000E+00  1.63942886E-02  6.89358420E-02
   1.27000000E+00  1.70950495E-02  7.12248644E-02
   1.28000000E+00  1.78189571E-02  7.35652487E-02
   1.29000000E+00  1.85665271E-02  7.59574028E-02
   1.30000000E+00  1.93382790E-02  7.84017163E-02
   1.31000000E+00  2.01347365E-02  8.08985607E-02
   1.32000000E+00  2.09564265E-02  8.34482875E-02
   1.33000000E+00  2.18038796E-02  8.60512286E-02
   1.34000000E+00  2.26776295E-02  8.87076949E-02
   1.35000000E+00  2.35782129E-02  9.14179761E-02
   1.36000000E+00  2.45061693E-02  9.41823395E-02
   1.37000000E+00  2.54620408E-02  9.70010300E-02
   1.38000000E+00  2.64463718E-02  9.98742689E-02
   1.39000000E+00  2.74597087E-02  1.02802253E-01
   1.40000000E+00  2.85025999E-02  1.05785155E-01
   1.41000000E+00  2.95755953E-02  1.08823122E-01
   1.42000000E+00  3.06792463E-02  1.11916274E-01
   1.43000000E+00  3.18141051E-02  1.15064706E-01
   1.44000000E+00  3.29807249E-02  1.18268483E-01
   1.45000000E+00  3.41796594E-02  1.21527643E-01
   1.46000000E+00  3.54114624E-02  1.24842196E-01
   1.47000000E+00  3.66766879E-02  1.28212121E-01
   1.48000000E+00  3.79758892E-02  1.31637369E-01
   1.49000000E+00  3.93096194E-02  1.35117857E-01
   1.50000000E+00  4.06784301E-02  1.38653472E-01
   1.51000000E+00  4.20828721E-02  1.42244070E-01
   1.52000000E+00  4.35234942E-02  1.45889474E-01
   1.53000000E+00  4.50008435E-02  1.49589470E-01
   1.54000000E+00  4.65154648E-02  1.53343816E-01
   1.55000000E+00  4.80679001E-02  1.57152230E-01
   1.56000000E+00  4.96586886E-02  1.61014397E-01
   1.57000000E+00  5.12883660E-02  1.64929967E-01
   1.58000000E+00  5.29574646E-02  1.68898552E-01
   1.59000000E+00  5.46665124E-02  1.72919728E-01
   1.60000000E+00  5.64160329E-02  1.76993032E-01
   1.61000000E+00  5.82065451E-02  1.81117965E-01
   1.62000000E+00  6.00385626E-02  1.85293988E-01
   1.63000000E+00  6.19125933E-02  1.89520524E-01
   1.64000000E+00  6.38291393E-02  1.93796953E-01
   1.65000000E+00  6.57886965E-02  1.98122620E-01
   1.66000000E+00  6.77917535E-02  2.02496824E-01
   1.67000000E+00  6.98387923E-02  2.06918828E-01
   1.68000000E+00  7.19302868E-02  2.11387848E-01
   1.69000000E+00  7.40667032E-02  2.15903064E-01
   1.70000000E+00  7.62484992E-02  2.20463609E-01
   1.71000000E+00  7.84761235E-02  2.25068574E-01
   1.72000000E+00  8.07500156E-02  2.29717009E-01
   1.73000000E+00  8.30706052E-02  2.34407918E-01
   1.74000000E+00  8.54383121E-02  2.39140263E-01
   1.75000000E+00  8.78535450E-02  2.43912960E-01
   1.76000000E+00  9.03167020E-02  2.48724882E-01
   1.77000000E+00  9.28281695E-02  2.53574857E-01
   1.78000000E+00  9.53883220E-02  2.58461668E-01
   1.79000000E+00  9.79975214E-02  2.63384053E-01
   1.80000000E+00  1.00656117E-01  2.68340702E-01
   1.81000000E+00  1.03364445E-01  2.73330264E-01
   1.82000000E+00  1.06122828E-01  2.78351340E-01
   1.83000000E+00  1.08931572E-01  2.83402484E-01
   1.84000000E+00  1.11790972E-01  2.88482205E-01
   1.85000000E+00  1.14701306E-01  2.93588967E-01
   1.86000000E+00  1.17662837E-01  2.98721187E-01
   1.87000000E+00  1.20675810E-01  3.03877236E-01
   1.88000000E+00  1.23740455E-01  3.09055439E-01
   1.89000000E+00  1.26856987E-01  3.14254075E-01
   1.90000000E+00  1.30025599E-01  3.19471378E-01
   1.91000000E+00  1.33246470E-01  3.24705534E-01
   1.92000000E+00  1.36519760E-01  3.29954686E-01
   1.93000000E+00  1.39845608E-01  3.35216928E-01
   1.94000000E+00  1.43224135E-01  3.40490312E-01
   1.95000000E+00  1.46655444E-01  3.45772844E-01
   1.96000000E+00  1.50139616E-01  3.51062485E-01
   1.97000000E+00  1.53676711E-01  3.56357149E-01
   1.98000000E+00  1.57266769E-01  3.61654710E-01
   1.99000000E+00  1.60909807E-01  3.66952996E-01
   2.00000000E+00  1.64605824E-01  3.72249791E-01
   2.01000000E+00  1.68354791E-01  3.77542836E-01
   2.02000000E+00  1.72156660E-01  3.82829831E-01
   2.03000000E+00  1.76011359E-01  3.88108432E-01
   2.04000000E+00  1.79918793E-01  3.93376255E-01
   2.05000000E+00  1.83878841E-01  3.98630873E-01
   2.06000000E+00  1.87891358E-01  4.03869821E-01
   2.07000000E+00  1.91956176E-01  4.09090591E-01
   2.08000000E+00  1.96073101E-01  4.14290624E-01
   2.09000000E+00  2.00241972E-01  4.19485677E-01
   2.10000000E+00  2.04462853E-01  4.24692270E-01
   2.11000000E+00  2.08735851E-01  4.29908943E-01
   2.12000000E+00  2.13061060E-01  4.35134235E-01
   2.13000000E+00  2.17438560E-01  4.40366671E-01
   2.14000000E+00  2.21868413E-01  4.45604757E-01
   2.15000000E+00  2.26350669E-01  4.50846982E-01
   2.16000000E+00  2.30885361E-01  4.56091822E-01
   2.17000000E+00  2.35472509E-01  4.61337733E-01
   2.18000000E+00  2.40112114E-01  4.66583157E-01
   2.19000000E+00  2.44804165E-01  4.71826520E-01
   2.20000000E+00  2.49548632E-01  4.77066231E-01
   2.21000000E+00  2.54345472E-01  4.82300685E-01
   2.22000000E+00  2.59194623E-01  4.87528259E-01
   2.23000000E+00  2.64096009E-01  4.92747316E-01
   2.24000000E+00  2.69049535E-01  4.97956205E-01
   2.25000000E+00  2.74055093E-01  5.03153257E-01
   2.26000000E+00  2.79112556E-01  5.08336791E-01
   2.27000000E+00  2.84221778E-01  5.13505110E-01
   2.28000000E+00  2.89382601E-01  5.18656503E-01
   2.29000000E+00  2.94594846E-01  5.23789245E-01
   2.30000000E+00  2.99858318E-01  5.28901599E-01
   2.31000000E+00  3.05172804E-01  5.33991812E-01
   2.32000000E+00  3.10538075E-01  5.39058120E-01
   2.33000000E+00  3.15953881E-01  5.44098746E-01
   2.34000000E+00  3.21419958E-01  5.49111899E-01
   2.35000000E+00  3.26936022E-01  5.54095777E-01
   2.36000000E+00  3.32501770E-01  5.59048567E-01
   2.37000000E+00  3.38116883E-01  5.63968444E-01
   2.38000000E+00  3.43781023E-01  5.68853573E-01
   2.39000000E+00  3.49493833E-01  5.73702107E-01
   2.40000000E+00  3.55254937E-01  5.78512191E-01
   2.41000000E+00  3.61063942E-01  5.83281958E-01
   2.42000000E+00  3.66920436E-01  5.88009533E-01
   2.43000000E+00  3.72823986E-01  5.92693034E-01
   2.44000000E+00  3.78774143E-01  5.97330569E-01
   2.45000000E+00  3.84770438E-01  6.01920238E-01
   2.46000000E+00  3.90812382E-01  6.06460134E-01
   2.47000000E+00  3.96899468E-01  6.10948344E-01
   2.48000000E+00  4.03031170E-01  6.15382947E-01
   2.49000000E+00  4.09206942E-01  6.19762020E-01
   2.50000000E+00  4.15426219E-01  6.24083630E-01
   2.51000000E+00  4.21688417E-01  6.28345843E-01
   2.52000000E+00  4.27992931E-01  6.32546719E-01
   2.53000000E+00  4.34339140E-01  6.36684314E-01
   2.54000000E+00  4.40726400E-01  6.40756682E-01
   2.55000000E+00  4.47154050E-01  6.44761876E-01
   2.56000000E+00  4.53621407E-01  6.48697944E-01
   2.57000000E+00  4.60127772E-01  6.52562935E-01
   2.58000000E+00  4.66672423E-01  6.56354896E-01
   2.59000000E+00  4.73254620E-01  6.60071875E-01
   2.60000000E+00  4.79873604E-01  6.63711921E-01
   2.61000000E+00  4.86528595E-01  6.67273081E-01
   2.62000000E+00  4.93218796E-01  6.70753407E-01
   2.63000000E+00  4.99943387E-01  6.74150953E-01
   2.64000000E+00  5.06701532E-01  6.77463774E-01
   2.65000000E+00  5.13492374E-01  6.80689932E-01
   2.66000000E+00  5.20315036E-01  6.83827490E-01
   2.67000000E+00  5.27168622E-01  6.86874517E-01
   2.68000000E+00  5.34052218E-01  6.89829088E-01
   2.69000000E+00  5.40964889E-01  6.92689285E-01
   2.70000000E+00  5.47905683E-01  6.95453195E-01
   2.71000000E+00  5.54873626E-01  6.98118915E-01
   2.72000000E+00  5.61867727E-01  7.00684548E-01
   2.73000000E+00  5.68886977E-01  7.03148207E-01
   2.74000000E+00  5.75930345E-01  7.05508015E-01
   2.75000000E+00  5.82996785E-01  7.07762104E-01
   2.76000000E+00  5.90085229E-01  7.09908619E-01
   2.77000000E+00  5.97194592E-01  7.11945715E-01
   2.78000000E+00  6.04323772E-01  7.13871561E-01
   2.79000000E+00  6.11471647E-01  7.15684336E-01
   2.80000000E+00  6.18637076E-01  7.17382236E-01
   2.81000000E+00  6.25818903E-01  7.18963470E-01
   2.82000000E+00  6.33015951E-01  7.20426262E-01
   2.83000000E+00  6.40227027E-01  7.21768852E-01
   2.84000000E+00  6.47450921E-01  7.22989499E-01
   2.85000000E+00  6.54686405E-01  7.24086475E-01
   2.86000000E+00  6.61932233E-01  7.25058071E-01
   2.87000000E+00  6.69187143E-01  7.25902599E-01
   2.88000000E+00  6.76449856E-01  7.26618389E-01
   2.89000000E+00  6.83719076E-01  7.27203791E-01
   2.90000000E+00  6.90993491E-01  7.27657175E-01
   2.91000000E+00  6.98271774E-01  7.27976933E-01
   2.92000000E+00  7.05552579E-01  7.28161480E-01
   2.93000000E+00  7.12834548E-01  7.28209252E-01
   2.94000000E+00  7.20116303E-01  7.28118710E-01
   2.95000000E+00  7.27396456E-01  7.27888339E-01
   2.96000000E+00  7.34673599E-01  7.27516649E-01
   2.97000000E+00  7.41946313E-01  7.27002173E-01
   2.98000000E+00  7.49213162E-01  7.26343473E-01
   2.99000000E+00  7.56472697E-01  7.25539136E-01
   3.00000000E+00  7.63723454E-01  7.24587781E-01
   3.01000000E+00  7.70963958E-01  7.23488049E-01
   3.02000000E+00  7.78192716E-01  7.22238613E-01
   3.03000000E+00  7.85408227E-01  7.20838175E-01
   3.04000000E+00  7.92608972E-01  7.19285467E-01
   3.05000000E+00  7.99793424E-01  7.17579254E-01
   3.06000000E+00  8.06960042E-01  7.15718328E-01
   3.07000000E+00  8.14107271E-01  7.13701518E-01
   3.08000000E+00  8.21233549E-01  7.11527683E-01
   3.09000000E+00  8.28337298E-01  7.09195714E-01
   3.10000000E+00  8.35416932E-01  7.06704538E-01
   3.11000000E+00  8.42470854E-01  7.04053116E-01
   3.12000000E+00  8.49497457E-01  7.01240446E-01
   3.13000000E+00  8.56495123E-01  6.98265555E-01
   3.14000000E+00  8.63462224E-01  6.95127516E-01
   3.15000000E+00  8.70397126E-01  6.91825437E-01
   3.16000000E+00  8.77298183E-01  6.88358454E-01
   3.17000000E+00  8.84163743E-01  6.84725750E-01
   3.18000000E+00  8.90992143E-01  6.80926549E-01
   3.19000000E+00  8.97781716E-01  6.76960101E-01
   3.20000000E+00  9.04530786E-01  6.72825707E-01
   3.21000000E+00  9.11237668E-01  6.68522707E-01
   3.22000000E+00  9.17900676E-01  6.64050477E-01
   3.23000000E+00  9.24518112E-01  6.59408439E-01
   3.24000000E+00  9.31088277E-01  6.54596055E-01
   3.25000000E+00  9.37609464E-01  6.49612827E-01
   3.26000000E+00  9.44079962E-01  6.44458300E-01
   3.27000000E+00  9.50498057E-01  6.39132064E-01
   3.28000000E+00  9.56862030E-01  6.33633756E-01
   3.29000000E+00  9.63170158E-01  6.27963049E-01
   3.30000000E+00  9.69420715E-01  6.22119666E-01
   3.31000000E+00  9.75611975E-01  6.16103371E-01
   3.32000000E+00  9.81742206E-01  6.09913976E-01
   3.33000000E+00  9.87809677E-01  6.03551341E-01
   3.34000000E+00  9.93812655E-01  5.97015366E-01
   3.35000000E+00  9.99749406E-01  5.90305999E-01
   3.36000000E+00  1.00561820E+00  5.83423241E-01
   3.37000000E+00  1.01141729E+00  5.76367134E-01
   3.38000000E+00  1.01714496E+00  5.69137765E-01
   3.39000000E+00  1.02279947E+00  5.61735273E-01
   3.40000000E+00  1.02837909E+00  5.54159844E-01
   3.41000000E+00  1.03388209E+00  5.46411715E-01
   3.42000000E+00  1.03930675E+00  5.38491169E-01
   3.43000000E+00  1.04465134E+00  5.30398533E-01
   3.44000000E+00  1.04991415E+00  5.22134191E-01
   3.45000000E+00  1.05509345E+00  5.13698574E-01
   3.46000000E+00  1.06018755E+00  5.05092162E-01
   3.47000000E+00  1.06519473E+00  4.96315485E-01
   3.48000000E+00  1.07011329E+00  4.87369123E-01
   3.49000000E+00  1.07494155E+00  4.78253707E-01
   3.50000000E+00  1.07967781E+00  4.68969912E-01
   3.51000000E+00  1.08432039E+00  4.59518470E-01
   3.52000000E+00  1.08886762E+00  4.49900166E-01
   3.53000000E+00  1.09331784E+00  4.40115829E-01
   3.54000000E+00  1.09766939E+00  4.30166337E-01
   3.55000000E+00  1.10192062E+00  4.20052629E-01
   3.56000000E+00  1.10606990E+00  4.09775689E-01
   3.57000000E+00  1.11011559E+00  3.99336549E-01
   3.58000000E+00  1.11405609E+00  3.88736293E-01
   3.59000000E+00  1.11788978E+00  3.77976066E-01
   3.60000000E+00  1.12161508E+00  3.67057056E-01
   3.61000000E+00  1.12523040E+00  3.55980495E-01
   3.62000000E+00  1.12873417E+00  3.44747678E-01
   3.63000000E+00  1.13212484E+00  3.33359947E-01
   3.64000000E+00  1.13540086E+00  3.21818694E-01
   3.65000000E+00  1.13856070E+00  3.10125363E-01
   3.66000000E+00  1.14160286E+00  2.98281447E-01
   3.67000000E+00  1.14452584E+00  2.86288491E-01
   3.68000000E+00  1.14732814E+00  2.74148090E-01
   3.69000000E+00  1.15000831E+00  2.61861891E-01
   3.70000000E+00  1.15256490E+00  2.49431592E-01
   3.71000000E+00  1.15499647E+00  2.36858940E-01
   3.72000000E+00  1.15730161E+00  2.24145727E-01
   3.73000000E+00  1.15947892E+00  2.11293800E-01
   3.74000000E+00  1.16152703E+00  1.98305059E-01
   3.75000000E+00  1.16344457E+00  1.85181445E-01
   3.76000000E+00  1.16523021E+00  1.71924953E-01
   3.77000000E+00  1.16688264E+00  1.58537627E-01
   3.78000000E+00  1.16840054E+00  1.45021556E-01
   3.79000000E+00  1.16978265E+00  1.31378877E-01
   3.80000000E+00  1.17102770E+00  1.17611783E-01
   3.81000000E+00  1.17213447E+00  1.03722508E-01
   3.82000000E+00  1.17310175E+00  8.97133323E-02
   3.83000000E+00  1.17392835E+00  7.55865862E-02
   3.84000000E+00  1.17461310E+00  6.13446436E-02
   3.85000000E+00  1.17515487E+00  4.69899273E-02
   3.86000000E+00  1.17555253E+00  3.25249084E-02
   3.87000000E+00  1.17580500E+00  1.79520978E-02
   3.88000000E+00  1.17591122E+00  3.27405062E-03
   3.89000000E+00  1.17587014E+00 -1.15066317E-02
   3.90000000E+00  1.17568076E+00 -2.63873015E-02
