 # Radial wave functions calculated by RADIAL.
 # **** Schrodinger Eq. Numerical potential.
 #      Input potential file: potential_1T2z.dat  
 #      Free state: E= 4.409917E-01, L=   4  (EPS= 1.0E-15)
 #        Inner phase shift= 0.000000000000000E+00
 #      Coulomb phase shift=-1.613381298986769E+00  (ETA=-1.064804E+00)
 #      Matching radius: RAD(   11)= 1.000000000000000E-01
 #       R              P(R)            Q(R)
   0.00000000E+00  0.00000000E+00  0.00000000E+00
   1.00000000E-02  3.62518695E-13  1.81190430E-10
   2.00000000E-02  1.15762649E-11  2.89166886E-09
   3.00000000E-02  8.77312705E-11  1.46043236E-08
   4.00000000E-02  3.68952112E-10  4.60440354E-08
   5.00000000E-02  1.12366098E-09  1.12136665E-07
   6.00000000E-02  2.79031294E-09  2.31953961E-07
   7.00000000E-02  6.01858729E-09  4.28659982E-07
   8.00000000E-02  1.17100390E-08  7.29456697E-07
   9.00000000E-02  2.10582043E-08  1.16552926E-06
   1.00000000E-01  3.55881576E-08  1.77199094E-06
   1.10000000E-01  5.72287762E-08  2.59134144E-06
   1.20000000E-01  8.82567626E-08  3.66012531E-06
   1.30000000E-01  1.31428093E-07  5.02807759E-06
   1.40000000E-01  1.89982689E-07  6.74546480E-06
   1.50000000E-01  2.67681581E-07  8.86622988E-06
   1.60000000E-01  3.68843320E-07  1.14479231E-05
   1.70000000E-01  4.98379732E-07  1.45516391E-05
   1.80000000E-01  6.61831059E-07  1.82419562E-05
   1.90000000E-01  8.65400497E-07  2.25868774E-05
   2.00000000E-01  1.11598815E-06  2.76577710E-05
   2.10000000E-01  1.42122438E-06  3.35293126E-05
   2.20000000E-01  1.78950262E-06  4.02794258E-05
   2.30000000E-01  2.23001150E-06  4.79892234E-05
   2.40000000E-01  2.75276650E-06  5.67429487E-05
   2.50000000E-01  3.36864094E-06  6.66279159E-05
   2.60000000E-01  4.08939639E-06  7.77344512E-05
   2.70000000E-01  4.92771247E-06  9.01558330E-05
   2.80000000E-01  5.89721613E-06  1.03988233E-04
   2.90000000E-01  7.01251022E-06  1.19330653E-04
   3.00000000E-01  8.28920155E-06  1.36284873E-04
   3.10000000E-01  9.74392833E-06  1.54955380E-04
   3.20000000E-01  1.13943870E-05  1.75449316E-04
   3.30000000E-01  1.32593583E-05  1.97876416E-04
   3.40000000E-01  1.53587331E-05  2.22348945E-04
   3.50000000E-01  1.77135374E-05  2.48981640E-04
   3.60000000E-01  2.03459567E-05  2.77891647E-04
   3.70000000E-01  2.32793595E-05  3.09198462E-04
   3.80000000E-01  2.65383210E-05  3.43023871E-04
   3.90000000E-01  3.01486453E-05  3.79491884E-04
   4.00000000E-01  3.41373877E-05  4.18728682E-04
   4.10000000E-01  3.85328756E-05  4.60862549E-04
   4.20000000E-01  4.33647298E-05  5.06023812E-04
   4.30000000E-01  4.86638840E-05  5.54344784E-04
   4.40000000E-01  5.44626051E-05  6.05959698E-04
   4.50000000E-01  6.07945113E-05  6.61004648E-04
   4.60000000E-01  6.76945909E-05  7.19617528E-04
   4.70000000E-01  7.51992202E-05  7.81937970E-04
   4.80000000E-01  8.33461797E-05  8.48107282E-04
   4.90000000E-01  9.21746716E-05  9.18268389E-04
   5.00000000E-01  1.01725335E-04  9.92565771E-04
   5.10000000E-01  1.12040261E-04  1.07114540E-03
   5.20000000E-01  1.23163008E-04  1.15415468E-03
   5.30000000E-01  1.35138616E-04  1.24174238E-03
   5.40000000E-01  1.48013617E-04  1.33405859E-03
   5.50000000E-01  1.61836054E-04  1.43125466E-03
   5.60000000E-01  1.76655485E-04  1.53348309E-03
   5.70000000E-01  1.92523002E-04  1.64089753E-03
   5.80000000E-01  2.09491238E-04  1.75365272E-03
   5.90000000E-01  2.27614378E-04  1.87190436E-03
   6.00000000E-01  2.46948169E-04  1.99580913E-03
   6.10000000E-01  2.67549929E-04  2.12552458E-03
   6.20000000E-01  2.89478557E-04  2.26120909E-03
   6.30000000E-01  3.12794538E-04  2.40302179E-03
   6.40000000E-01  3.37559953E-04  2.55112255E-03
   6.50000000E-01  3.63838484E-04  2.70567184E-03
   6.60000000E-01  3.91695422E-04  2.86683075E-03
   6.70000000E-01  4.21197670E-04  3.03476088E-03
   6.80000000E-01  4.52413751E-04  3.20962430E-03
   6.90000000E-01  4.85413809E-04  3.39158348E-03
   7.00000000E-01  5.20269615E-04  3.58080124E-03
   7.10000000E-01  5.57054572E-04  3.77744070E-03
   7.20000000E-01  5.95843713E-04  3.98166521E-03
   7.30000000E-01  6.36713705E-04  4.19363827E-03
   7.40000000E-01  6.79742852E-04  4.41352351E-03
   7.50000000E-01  7.25011095E-04  4.64148463E-03
   7.60000000E-01  7.72600010E-04  4.87768530E-03
   7.70000000E-01  8.22592811E-04  5.12228915E-03
   7.80000000E-01  8.75074349E-04  5.37545968E-03
   7.90000000E-01  9.30131105E-04  5.63736023E-03
   8.00000000E-01  9.87851197E-04  5.90815391E-03
   8.10000000E-01  1.04832437E-03  6.18800352E-03
   8.20000000E-01  1.11164200E-03  6.47707155E-03
   8.30000000E-01  1.17789707E-03  6.77552008E-03
   8.40000000E-01  1.24718420E-03  7.08351071E-03
   8.50000000E-01  1.31959963E-03  7.40120458E-03
   8.60000000E-01  1.39524118E-03  7.72876221E-03
   8.70000000E-01  1.47420828E-03  8.06634355E-03
   8.80000000E-01  1.55660199E-03  8.41410785E-03
   8.90000000E-01  1.64252491E-03  8.77221364E-03
   9.00000000E-01  1.73208126E-03  9.14081867E-03
   9.10000000E-01  1.82537681E-03  9.52007985E-03
   9.20000000E-01  1.92251890E-03  9.91015320E-03
   9.30000000E-01  2.02361643E-03  1.03111938E-02
   9.40000000E-01  2.12877985E-03  1.07233558E-02
   9.50000000E-01  2.23812113E-03  1.11467922E-02
   9.60000000E-01  2.35175378E-03  1.15816549E-02
   9.70000000E-01  2.46979281E-03  1.20280948E-02
   9.80000000E-01  2.59235476E-03  1.24862615E-02
   9.90000000E-01  2.71955763E-03  1.29563033E-02
   1.00000000E+00  2.85152090E-03  1.34383673E-02
   1.01000000E+00  2.98836553E-03  1.39325993E-02
   1.02000000E+00  3.13021393E-03  1.44391435E-02
   1.03000000E+00  3.27718992E-03  1.49581428E-02
   1.04000000E+00  3.42941877E-03  1.54897386E-02
   1.05000000E+00  3.58702715E-03  1.60340708E-02
   1.06000000E+00  3.75014311E-03  1.65912776E-02
   1.07000000E+00  3.91889607E-03  1.71614956E-02
   1.08000000E+00  4.09341684E-03  1.77448597E-02
   1.09000000E+00  4.27383753E-03  1.83415032E-02
   1.10000000E+00  4.46029160E-03  1.89515575E-02
   1.11000000E+00  4.65291382E-03  1.95751522E-02
   1.12000000E+00  4.85184021E-03  2.02124150E-02
   1.13000000E+00  5.05720810E-03  2.08634719E-02
   1.14000000E+00  5.26915604E-03  2.15284466E-02
   1.15000000E+00  5.48782383E-03  2.22074611E-02
   1.16000000E+00  5.71335246E-03  2.29006353E-02
   1.17000000E+00  5.94588412E-03  2.36080869E-02
   1.18000000E+00  6.18556217E-03  2.43299315E-02
   1.19000000E+00  6.43253111E-03  2.50662828E-02
   1.20000000E+00  6.68693656E-03  2.58172519E-02
   1.21000000E+00  6.94892524E-03  2.65829479E-02
   1.22000000E+00  7.21864496E-03  2.73634776E-02
   1.23000000E+00  7.49624458E-03  2.81589454E-02
   1.24000000E+00  7.78187400E-03  2.89694534E-02
   1.25000000E+00  8.07568412E-03  2.97951013E-02
   1.26000000E+00  8.37782682E-03  3.06359863E-02
   1.27000000E+00  8.68845495E-03  3.14922031E-02
   1.28000000E+00  9.00772230E-03  3.23638441E-02
   1.29000000E+00  9.33578355E-03  3.32509990E-02
   1.30000000E+00  9.67279428E-03  3.41537548E-02
   1.31000000E+00  1.00189109E-02  3.50721962E-02
   1.32000000E+00  1.03742908E-02  3.60064049E-02
   1.33000000E+00  1.07390918E-02  3.69564601E-02
   1.34000000E+00  1.11134730E-02  3.79224383E-02
   1.35000000E+00  1.14975939E-02  3.89044132E-02
   1.36000000E+00  1.18916149E-02  3.99024557E-02
   1.37000000E+00  1.22956968E-02  4.09166339E-02
   1.38000000E+00  1.27100015E-02  4.19470131E-02
   1.39000000E+00  1.31346913E-02  4.29936557E-02
   1.40000000E+00  1.35699291E-02  4.40566212E-02
   1.41000000E+00  1.40158783E-02  4.51359660E-02
   1.42000000E+00  1.44727032E-02  4.62317439E-02
   1.43000000E+00  1.49405682E-02  4.73440054E-02
   1.44000000E+00  1.54196384E-02  4.84727980E-02
   1.45000000E+00  1.59100794E-02  4.96181664E-02
   1.46000000E+00  1.64120571E-02  5.07801520E-02
   1.47000000E+00  1.69257379E-02  5.19587931E-02
   1.48000000E+00  1.74512886E-02  5.31541250E-02
   1.49000000E+00  1.79888762E-02  5.43661797E-02
   1.50000000E+00  1.85386680E-02  5.55949864E-02
   1.51000000E+00  1.91008318E-02  5.68405706E-02
   1.52000000E+00  1.96755354E-02  5.81029549E-02
   1.53000000E+00  2.02629470E-02  5.93821586E-02
   1.54000000E+00  2.08632347E-02  6.06781977E-02
   1.55000000E+00  2.14765671E-02  6.19910850E-02
   1.56000000E+00  2.21031126E-02  6.33208299E-02
   1.57000000E+00  2.27430399E-02  6.46674387E-02
   1.58000000E+00  2.33965176E-02  6.60309140E-02
   1.59000000E+00  2.40637144E-02  6.74112554E-02
   1.60000000E+00  2.47447989E-02  6.88084589E-02
   1.61000000E+00  2.54399398E-02  7.02225172E-02
   1.62000000E+00  2.61493054E-02  7.16534196E-02
   1.63000000E+00  2.68730643E-02  7.31011520E-02
   1.64000000E+00  2.76113845E-02  7.45656969E-02
   1.65000000E+00  2.83644342E-02  7.60470331E-02
   1.66000000E+00  2.91323811E-02  7.75451363E-02
   1.67000000E+00  2.99153927E-02  7.90599784E-02
   1.68000000E+00  3.07136363E-02  8.05915281E-02
   1.69000000E+00  3.15272788E-02  8.21397504E-02
   1.70000000E+00  3.23564868E-02  8.37046068E-02
   1.71000000E+00  3.32014263E-02  8.52860555E-02
   1.72000000E+00  3.40622630E-02  8.68840509E-02
   1.73000000E+00  3.49391623E-02  8.84985439E-02
   1.74000000E+00  3.58322887E-02  9.01294820E-02
   1.75000000E+00  3.67418066E-02  9.17768090E-02
   1.76000000E+00  3.76678793E-02  9.34404653E-02
   1.77000000E+00  3.86106701E-02  9.51203876E-02
   1.78000000E+00  3.95703411E-02  9.68165090E-02
   1.79000000E+00  4.05470540E-02  9.85287591E-02
   1.80000000E+00  4.15409698E-02  1.00257064E-01
   1.81000000E+00  4.25522486E-02  1.02001346E-01
   1.82000000E+00  4.35810497E-02  1.03761524E-01
   1.83000000E+00  4.46275317E-02  1.05537513E-01
   1.84000000E+00  4.56918524E-02  1.07329224E-01
   1.85000000E+00  4.67741683E-02  1.09136567E-01
   1.86000000E+00  4.78746355E-02  1.10959445E-01
   1.87000000E+00  4.89934087E-02  1.12797758E-01
   1.88000000E+00  5.01306418E-02  1.14651405E-01
   1.89000000E+00  5.12864875E-02  1.16520279E-01
   1.90000000E+00  5.24610977E-02  1.18404270E-01
   1.91000000E+00  5.36546230E-02  1.20303264E-01
   1.92000000E+00  5.48672127E-02  1.22217145E-01
   1.93000000E+00  5.60990151E-02  1.24145791E-01
   1.94000000E+00  5.73501773E-02  1.26089078E-01
   1.95000000E+00  5.86208450E-02  1.28046878E-01
   1.96000000E+00  5.99111628E-02  1.30019061E-01
   1.97000000E+00  6.12212737E-02  1.32005490E-01
   1.98000000E+00  6.25513196E-02  1.34006027E-01
   1.99000000E+00  6.39014408E-02  1.36020531E-01
   2.00000000E+00  6.52717763E-02  1.38048855E-01
   2.01000000E+00  6.66624635E-02  1.40090850E-01
   2.02000000E+00  6.80736384E-02  1.42146364E-01
   2.03000000E+00  6.95054353E-02  1.44215240E-01
   2.04000000E+00  7.09579872E-02  1.46297319E-01
   2.05000000E+00  7.24314252E-02  1.48392437E-01
   2.06000000E+00  7.39258788E-02  1.50500428E-01
   2.07000000E+00  7.54414761E-02  1.52621121E-01
   2.08000000E+00  7.69783430E-02  1.54754343E-01
   2.09000000E+00  7.85366041E-02  1.56899917E-01
   2.10000000E+00  8.01163819E-02  1.59057662E-01
   2.11000000E+00  8.17177973E-02  1.61227394E-01
   2.12000000E+00  8.33409691E-02  1.63408927E-01
   2.13000000E+00  8.49860145E-02  1.65602068E-01
   2.14000000E+00  8.66530485E-02  1.67806626E-01
   2.15000000E+00  8.83421844E-02  1.70022401E-01
   2.16000000E+00  9.00535333E-02  1.72249193E-01
   2.17000000E+00  9.17872043E-02  1.74486799E-01
   2.18000000E+00  9.35433046E-02  1.76735010E-01
   2.19000000E+00  9.53219392E-02  1.78993617E-01
   2.20000000E+00  9.71232109E-02  1.81262405E-01
   2.21000000E+00  9.89472205E-02  1.83541158E-01
   2.22000000E+00  1.00794067E-01  1.85829655E-01
   2.23000000E+00  1.02663845E-01  1.88127672E-01
   2.24000000E+00  1.04556651E-01  1.90434984E-01
   2.25000000E+00  1.06472575E-01  1.92751360E-01
   2.26000000E+00  1.08411708E-01  1.95076567E-01
   2.27000000E+00  1.10374135E-01  1.97410370E-01
   2.28000000E+00  1.12359943E-01  1.99752529E-01
   2.29000000E+00  1.14369213E-01  2.02102802E-01
   2.30000000E+00  1.16402025E-01  2.04460945E-01
   2.31000000E+00  1.18458457E-01  2.06826708E-01
   2.32000000E+00  1.20538584E-01  2.09199842E-01
   2.33000000E+00  1.22642478E-01  2.11580091E-01
   2.34000000E+00  1.24770209E-01  2.13967200E-01
   2.35000000E+00  1.26921844E-01  2.16360908E-01
   2.36000000E+00  1.29097448E-01  2.18760953E-01
   2.37000000E+00  1.31297083E-01  2.21167068E-01
   2.38000000E+00  1.33520809E-01  2.23578987E-01
   2.39000000E+00  1.35768681E-01  2.25996437E-01
   2.40000000E+00  1.38040755E-01  2.28419146E-01
   2.41000000E+00  1.40337081E-01  2.30846836E-01
   2.42000000E+00  1.42657707E-01  2.33279228E-01
   2.43000000E+00  1.45002680E-01  2.35716042E-01
   2.44000000E+00  1.47372042E-01  2.38156991E-01
   2.45000000E+00  1.49765833E-01  2.40601790E-01
   2.46000000E+00  1.52184089E-01  2.43050149E-01
   2.47000000E+00  1.54626847E-01  2.45501775E-01
   2.48000000E+00  1.57094135E-01  2.47956375E-01
   2.49000000E+00  1.59585983E-01  2.50413651E-01
   2.50000000E+00  1.62102416E-01  2.52873305E-01
   2.51000000E+00  1.64643456E-01  2.55335033E-01
   2.52000000E+00  1.67209122E-01  2.57798534E-01
   2.53000000E+00  1.69799432E-01  2.60263499E-01
   2.54000000E+00  1.72414396E-01  2.62729621E-01
   2.55000000E+00  1.75054027E-01  2.65196589E-01
   2.56000000E+00  1.77718330E-01  2.67664090E-01
   2.57000000E+00  1.80407309E-01  2.70131809E-01
   2.58000000E+00  1.83120966E-01  2.72599428E-01
   2.59000000E+00  1.85859296E-01  2.75066628E-01
   2.60000000E+00  1.88622296E-01  2.77533089E-01
   2.61000000E+00  1.91409955E-01  2.79998487E-01
   2.62000000E+00  1.94222261E-01  2.82462496E-01
   2.63000000E+00  1.97059199E-01  2.84924790E-01
   2.64000000E+00  1.99920750E-01  2.87385039E-01
   2.65000000E+00  2.02806892E-01  2.89842914E-01
   2.66000000E+00  2.05717599E-01  2.92298080E-01
   2.67000000E+00  2.08652843E-01  2.94750205E-01
   2.68000000E+00  2.11612592E-01  2.97198951E-01
   2.69000000E+00  2.14596810E-01  2.99643982E-01
   2.70000000E+00  2.17605458E-01  3.02084958E-01
   2.71000000E+00  2.20638494E-01  3.04521539E-01
   2.72000000E+00  2.23695873E-01  3.06953381E-01
   2.73000000E+00  2.26777545E-01  3.09380141E-01
   2.74000000E+00  2.29883458E-01  3.11801475E-01
   2.75000000E+00  2.33013555E-01  3.14217035E-01
   2.76000000E+00  2.36167778E-01  3.16626473E-01
   2.77000000E+00  2.39346063E-01  3.19029440E-01
   2.78000000E+00  2.42548344E-01  3.21425586E-01
   2.79000000E+00  2.45774551E-01  3.23814558E-01
   2.80000000E+00  2.49024610E-01  3.26196005E-01
   2.81000000E+00  2.52298445E-01  3.28569572E-01
   2.82000000E+00  2.55595974E-01  3.30934903E-01
   2.83000000E+00  2.58917114E-01  3.33291643E-01
   2.84000000E+00  2.62261777E-01  3.35639436E-01
   2.85000000E+00  2.65629872E-01  3.37977921E-01
   2.86000000E+00  2.69021303E-01  3.40306742E-01
   2.87000000E+00  2.72435973E-01  3.42625539E-01
   2.88000000E+00  2.75873780E-01  3.44933950E-01
   2.89000000E+00  2.79334617E-01  3.47231614E-01
   2.90000000E+00  2.82818375E-01  3.49518170E-01
   2.91000000E+00  2.86324942E-01  3.51793256E-01
   2.92000000E+00  2.89854201E-01  3.54056507E-01
   2.93000000E+00  2.93406031E-01  3.56307561E-01
   2.94000000E+00  2.96980310E-01  3.58546053E-01
   2.95000000E+00  3.00576909E-01  3.60771619E-01
   2.96000000E+00  3.04195698E-01  3.62983893E-01
   2.97000000E+00  3.07836542E-01  3.65182511E-01
   2.98000000E+00  3.11499301E-01  3.67367107E-01
   2.99000000E+00  3.15183836E-01  3.69537314E-01
   3.00000000E+00  3.18889999E-01  3.71692768E-01
   3.01000000E+00  3.22617641E-01  3.73833101E-01
   3.02000000E+00  3.26366609E-01  3.75957947E-01
   3.03000000E+00  3.30136747E-01  3.78066941E-01
   3.04000000E+00  3.33927894E-01  3.80159715E-01
   3.05000000E+00  3.37739886E-01  3.82235904E-01
   3.06000000E+00  3.41572555E-01  3.84295141E-01
   3.07000000E+00  3.45425731E-01  3.86337060E-01
   3.08000000E+00  3.49299238E-01  3.88361296E-01
   3.09000000E+00  3.53192897E-01  3.90367483E-01
   3.10000000E+00  3.57106526E-01  3.92355256E-01
   3.11000000E+00  3.61039939E-01  3.94324250E-01
   3.12000000E+00  3.64992947E-01  3.96274101E-01
   3.13000000E+00  3.68965356E-01  3.98204444E-01
   3.14000000E+00  3.72956970E-01  4.00114917E-01
   3.15000000E+00  3.76967587E-01  4.02005156E-01
   3.16000000E+00  3.80997004E-01  4.03874800E-01
   3.17000000E+00  3.85045013E-01  4.05723485E-01
   3.18000000E+00  3.89111403E-01  4.07550853E-01
   3.19000000E+00  3.93195958E-01  4.09356543E-01
   3.20000000E+00  3.97298460E-01  4.11140195E-01
   3.21000000E+00  4.01418687E-01  4.12901451E-01
   3.22000000E+00  4.05556413E-01  4.14639954E-01
   3.23000000E+00  4.09711409E-01  4.16355347E-01
   3.24000000E+00  4.13883442E-01  4.18047275E-01
   3.25000000E+00  4.18072275E-01  4.19715383E-01
   3.26000000E+00  4.22277669E-01  4.21359319E-01
   3.27000000E+00  4.26499380E-01  4.22978730E-01
   3.28000000E+00  4.30737161E-01  4.24573266E-01
   3.29000000E+00  4.34990761E-01  4.26142576E-01
   3.30000000E+00  4.39259927E-01  4.27686314E-01
   3.31000000E+00  4.43544401E-01  4.29204132E-01
   3.32000000E+00  4.47843922E-01  4.30695684E-01
   3.33000000E+00  4.52158226E-01  4.32160627E-01
   3.34000000E+00  4.56487045E-01  4.33598620E-01
   3.35000000E+00  4.60830107E-01  4.35009320E-01
   3.36000000E+00  4.65187139E-01  4.36392389E-01
   3.37000000E+00  4.69557862E-01  4.37747489E-01
   3.38000000E+00  4.73941995E-01  4.39074286E-01
   3.39000000E+00  4.78339252E-01  4.40372445E-01
   3.40000000E+00  4.82749347E-01  4.41641633E-01
   3.41000000E+00  4.87171987E-01  4.42881522E-01
   3.42000000E+00  4.91606879E-01  4.44091783E-01
   3.43000000E+00  4.96053723E-01  4.45272089E-01
   3.44000000E+00  5.00512219E-01  4.46422117E-01
   3.45000000E+00  5.04982063E-01  4.47541545E-01
   3.46000000E+00  5.09462947E-01  4.48630053E-01
   3.47000000E+00  5.13954560E-01  4.49687322E-01
   3.48000000E+00  5.18456589E-01  4.50713038E-01
   3.49000000E+00  5.22968715E-01  4.51706887E-01
   3.50000000E+00  5.27490619E-01  4.52668559E-01
   3.51000000E+00  5.32021978E-01  4.53597744E-01
   3.52000000E+00  5.36562465E-01  4.54494138E-01
   3.53000000E+00  5.41111750E-01  4.55357436E-01
   3.54000000E+00  5.45669502E-01  4.56187338E-01
   3.55000000E+00  5.50235385E-01  4.56983544E-01
   3.56000000E+00  5.54809060E-01  4.57745760E-01
   3.57000000E+00  5.59390186E-01  4.58473691E-01
   3.58000000E+00  5.63978418E-01  4.59167048E-01
   3.59000000E+00  5.68573410E-01  4.59825542E-01
   3.60000000E+00  5.73174812E-01  4.60448889E-01
   3.61000000E+00  5.77782270E-01  4.61036807E-01
   3.62000000E+00  5.82395429E-01  4.61589016E-01
   3.63000000E+00  5.87013930E-01  4.62105240E-01
   3.64000000E+00  5.91637413E-01  4.62585206E-01
   3.65000000E+00  5.96265513E-01  4.63028644E-01
   3.66000000E+00  6.00897863E-01  4.63435286E-01
   3.67000000E+00  6.05534095E-01  4.63804869E-01
   3.68000000E+00  6.10173836E-01  4.64137132E-01
   3.69000000E+00  6.14816712E-01  4.64431816E-01
   3.70000000E+00  6.19462346E-01  4.64688668E-01
   3.71000000E+00  6.24110359E-01  4.64907436E-01
   3.72000000E+00  6.28760367E-01  4.65087872E-01
   3.73000000E+00  6.33411988E-01  4.65229733E-01
   3.74000000E+00  6.38064833E-01  4.65332776E-01
   3.75000000E+00  6.42718513E-01  4.65396765E-01
   3.76000000E+00  6.47372637E-01  4.65421464E-01
   3.77000000E+00  6.52026810E-01  4.65406645E-01
   3.78000000E+00  6.56680637E-01  4.65352079E-01
   3.79000000E+00  6.61333719E-01  4.65257543E-01
   3.80000000E+00  6.65985654E-01  4.65122817E-01
   3.81000000E+00  6.70636040E-01  4.64947686E-01
   3.82000000E+00  6.75284473E-01  4.64731937E-01
   3.83000000E+00  6.79930543E-01  4.64475362E-01
   3.84000000E+00  6.84573843E-01  4.64177755E-01
   3.85000000E+00  6.89213961E-01  4.63838917E-01
   3.86000000E+00  6.93850483E-01  4.63458649E-01
   3.87000000E+00  6.98482995E-01  4.63036759E-01
   3.88000000E+00  7.03111079E-01  4.62573058E-01
   3.89000000E+00  7.07734316E-01  4.62067360E-01
   3.90000000E+00  7.12352286E-01  4.61519485E-01
