 # Radial wave functions calculated by RADIAL.
 # **** Schrodinger Eq. Numerical potential.
 #      Input potential file: potential_2A1.dat   
 #      Free state: E= 4.409917E-01, L=   3  (EPS= 1.0E-15)
 #        Inner phase shift= 1.281649207414235E-01
 #      Coulomb phase shift=-1.353259305560714E+00  (ETA=-1.064839E+00)
 #      Matching radius: RAD(  829)= 8.279999999999999E+00
 #       R              P(R)            Q(R)
   0.00000000E+00  0.00000000E+00  0.00000000E+00
   1.00000000E-02  9.73982395E-10  3.88158890E-07
   2.00000000E-02  1.53580655E-08  3.04942318E-06
   3.00000000E-02  7.66453826E-08  1.01107323E-05
   4.00000000E-02  2.38859633E-07  2.35537547E-05
   5.00000000E-02  5.75174617E-07  4.52290771E-05
   6.00000000E-02  1.17666789E-06  7.68688417E-05
   7.00000000E-02  2.15119321E-06  1.20097889E-04
   8.00000000E-02  3.62235745E-06  1.76443508E-04
   9.00000000E-02  5.72858842E-06  2.47343924E-04
   1.00000000E-01  8.62228200E-06  3.34155655E-04
   1.10000000E-01  1.24690176E-05  4.38159878E-04
   1.20000000E-01  1.74468329E-05  5.60567935E-04
   1.30000000E-01  2.37455501E-05  7.02526098E-04
   1.40000000E-01  3.15661461E-05  8.65119713E-04
   1.50000000E-01  4.11201619E-05  1.04937681E-03
   1.60000000E-01  5.26291460E-05  1.25627130E-03
   1.70000000E-01  6.63241264E-05  1.48672572E-03
   1.80000000E-01  8.24451113E-05  1.74161385E-03
   1.90000000E-01  1.01240611E-04  2.02176285E-03
   2.00000000E-01  1.22967185E-04  2.32795546E-03
   2.10000000E-01  1.47889004E-04  2.66093176E-03
   2.20000000E-01  1.76277435E-04  3.02139109E-03
   2.30000000E-01  2.08410640E-04  3.40999360E-03
   2.40000000E-01  2.44573197E-04  3.82736190E-03
   2.50000000E-01  2.85055723E-04  4.27408256E-03
   2.60000000E-01  3.30154533E-04  4.75070755E-03
   2.70000000E-01  3.80171288E-04  5.25775568E-03
   2.80000000E-01  4.35412683E-04  5.79571394E-03
   2.90000000E-01  4.96190126E-04  6.36503884E-03
   3.00000000E-01  5.62819443E-04  6.96615772E-03
   3.10000000E-01  6.35620595E-04  7.59946999E-03
   3.20000000E-01  7.14917399E-04  8.26534836E-03
   3.30000000E-01  8.01037276E-04  8.96414005E-03
   3.40000000E-01  8.94310991E-04  9.69616804E-03
   3.50000000E-01  9.95072425E-04  1.04617320E-02
   3.60000000E-01  1.10365835E-03  1.12611098E-02
   3.70000000E-01  1.22040819E-03  1.20945578E-02
   3.80000000E-01  1.34566386E-03  1.29623130E-02
   3.90000000E-01  1.47976954E-03  1.38645930E-02
   4.00000000E-01  1.62307147E-03  1.48015977E-02
   4.10000000E-01  1.77591785E-03  1.57735097E-02
   4.20000000E-01  1.93865858E-03  1.67804955E-02
   4.30000000E-01  2.11164518E-03  1.78227062E-02
   4.40000000E-01  2.29523058E-03  1.89002786E-02
   4.50000000E-01  2.48976903E-03  2.00133353E-02
   4.60000000E-01  2.69561593E-03  2.11619862E-02
   4.70000000E-01  2.91312773E-03  2.23463288E-02
   4.80000000E-01  3.14266177E-03  2.35664489E-02
   4.90000000E-01  3.38457622E-03  2.48224210E-02
   5.00000000E-01  3.63922991E-03  2.61143093E-02
   5.10000000E-01  3.90698230E-03  2.74421678E-02
   5.20000000E-01  4.18819332E-03  2.88060412E-02
   5.30000000E-01  4.48322330E-03  3.02059651E-02
   5.40000000E-01  4.79243288E-03  3.16419663E-02
   5.50000000E-01  5.11618294E-03  3.31140635E-02
   5.60000000E-01  5.45483451E-03  3.46222675E-02
   5.70000000E-01  5.80874866E-03  3.61665815E-02
   5.80000000E-01  6.17828649E-03  3.77470017E-02
   5.90000000E-01  6.56380901E-03  3.93635167E-02
   6.00000000E-01  6.96567708E-03  4.10161087E-02
   6.10000000E-01  7.38425136E-03  4.27047532E-02
   6.20000000E-01  7.81989222E-03  4.44294192E-02
   6.30000000E-01  8.27295969E-03  4.61900696E-02
   6.40000000E-01  8.74381342E-03  4.79866611E-02
   6.50000000E-01  9.23281256E-03  4.98191443E-02
   6.60000000E-01  9.74031576E-03  5.16874639E-02
   6.70000000E-01  1.02666811E-02  5.35915582E-02
   6.80000000E-01  1.08122659E-02  5.55313603E-02
   6.90000000E-01  1.13774271E-02  5.75067970E-02
   7.00000000E-01  1.19625204E-02  5.95177892E-02
   7.10000000E-01  1.25679011E-02  6.15642520E-02
   7.20000000E-01  1.31939234E-02  6.36460947E-02
   7.30000000E-01  1.38409406E-02  6.57632202E-02
   7.40000000E-01  1.45093051E-02  6.79155255E-02
   7.50000000E-01  1.51993680E-02  7.01029012E-02
   7.60000000E-01  1.59114796E-02  7.23252320E-02
   7.70000000E-01  1.66459888E-02  7.45823961E-02
   7.80000000E-01  1.74032432E-02  7.68742653E-02
   7.90000000E-01  1.81835893E-02  7.92007041E-02
   8.00000000E-01  1.89873720E-02  8.15615710E-02
   8.10000000E-01  1.98149350E-02  8.39567172E-02
   8.20000000E-01  2.06666201E-02  8.63859868E-02
   8.30000000E-01  2.15427679E-02  8.88492167E-02
   8.40000000E-01  2.24437171E-02  9.13462362E-02
   8.50000000E-01  2.33698047E-02  9.38768674E-02
   8.60000000E-01  2.43213659E-02  9.64409237E-02
   8.70000000E-01  2.52987339E-02  9.90382109E-02
   8.80000000E-01  2.63022402E-02  1.01668527E-01
   8.90000000E-01  2.73322139E-02  1.04331661E-01
   9.00000000E-01  2.83889821E-02  1.07027393E-01
   9.10000000E-01  2.94728696E-02  1.09755496E-01
   9.20000000E-01  3.05841991E-02  1.12515730E-01
   9.30000000E-01  3.17232905E-02  1.15307849E-01
   9.40000000E-01  3.28904615E-02  1.18131598E-01
   9.50000000E-01  3.40860270E-02  1.20986708E-01
   9.60000000E-01  3.53102993E-02  1.23872905E-01
   9.70000000E-01  3.65635878E-02  1.26789901E-01
   9.80000000E-01  3.78461990E-02  1.29737399E-01
   9.90000000E-01  3.91584364E-02  1.32715092E-01
   1.00000000E+00  4.05006004E-02  1.35722661E-01
   1.01000000E+00  4.18729881E-02  1.38759775E-01
   1.02000000E+00  4.32758932E-02  1.41826092E-01
   1.03000000E+00  4.47096061E-02  1.44921260E-01
   1.04000000E+00  4.61744134E-02  1.48044912E-01
   1.05000000E+00  4.76705981E-02  1.51196672E-01
   1.06000000E+00  4.91984392E-02  1.54376150E-01
   1.07000000E+00  5.07582121E-02  1.57582943E-01
   1.08000000E+00  5.23501878E-02  1.60816636E-01
   1.09000000E+00  5.39746331E-02  1.64076800E-01
   1.10000000E+00  5.56318105E-02  1.67362993E-01
   1.11000000E+00  5.73219782E-02  1.70674759E-01
   1.12000000E+00  5.90453894E-02  1.74011630E-01
   1.13000000E+00  6.08022928E-02  1.77373122E-01
   1.14000000E+00  6.25929322E-02  1.80758738E-01
   1.15000000E+00  6.44175463E-02  1.84167965E-01
   1.16000000E+00  6.62763685E-02  1.87600277E-01
   1.17000000E+00  6.81696270E-02  1.91055132E-01
   1.18000000E+00  7.00975444E-02  1.94531974E-01
   1.19000000E+00  7.20603379E-02  1.98030231E-01
   1.20000000E+00  7.40582185E-02  2.01549317E-01
   1.21000000E+00  7.60913916E-02  2.05088627E-01
   1.22000000E+00  7.81600564E-02  2.08647543E-01
   1.23000000E+00  8.02644057E-02  2.12225431E-01
   1.24000000E+00  8.24046261E-02  2.15821640E-01
   1.25000000E+00  8.45808974E-02  2.19435504E-01
   1.26000000E+00  8.67933927E-02  2.23066337E-01
   1.27000000E+00  8.90422783E-02  2.26713441E-01
   1.28000000E+00  9.13277134E-02  2.30376098E-01
   1.29000000E+00  9.36498497E-02  2.34053575E-01
   1.30000000E+00  9.60088318E-02  2.37745121E-01
   1.31000000E+00  9.84047964E-02  2.41449968E-01
   1.32000000E+00  1.00837873E-01  2.45167331E-01
   1.33000000E+00  1.03308182E-01  2.48896408E-01
   1.34000000E+00  1.05815837E-01  2.52636378E-01
   1.35000000E+00  1.08360943E-01  2.56386405E-01
   1.36000000E+00  1.10943596E-01  2.60145634E-01
   1.37000000E+00  1.13563884E-01  2.63913191E-01
   1.38000000E+00  1.16221885E-01  2.67688188E-01
   1.39000000E+00  1.18917669E-01  2.71469714E-01
   1.40000000E+00  1.21651298E-01  2.75256845E-01
   1.41000000E+00  1.24422822E-01  2.79048638E-01
   1.42000000E+00  1.27232283E-01  2.82844130E-01
   1.43000000E+00  1.30079713E-01  2.86642341E-01
   1.44000000E+00  1.32965135E-01  2.90442275E-01
   1.45000000E+00  1.35888561E-01  2.94242917E-01
   1.46000000E+00  1.38849993E-01  2.98043233E-01
   1.47000000E+00  1.41849421E-01  3.01842172E-01
   1.48000000E+00  1.44886828E-01  3.05638667E-01
   1.49000000E+00  1.47962183E-01  3.09431629E-01
   1.50000000E+00  1.51075445E-01  3.13219956E-01
   1.51000000E+00  1.54226563E-01  3.17002525E-01
   1.52000000E+00  1.57415473E-01  3.20778198E-01
   1.53000000E+00  1.60642100E-01  3.24545818E-01
   1.54000000E+00  1.63906358E-01  3.28304211E-01
   1.55000000E+00  1.67208149E-01  3.32052187E-01
   1.56000000E+00  1.70547363E-01  3.35788537E-01
   1.57000000E+00  1.73923877E-01  3.39512036E-01
   1.58000000E+00  1.77337557E-01  3.43221442E-01
   1.59000000E+00  1.80788255E-01  3.46915498E-01
   1.60000000E+00  1.84275811E-01  3.50592929E-01
   1.61000000E+00  1.87800054E-01  3.54252444E-01
   1.62000000E+00  1.91360796E-01  3.57892736E-01
   1.63000000E+00  1.94957840E-01  3.61512482E-01
   1.64000000E+00  1.98590973E-01  3.65110345E-01
   1.65000000E+00  2.02259969E-01  3.68684971E-01
   1.66000000E+00  2.05964590E-01  3.72234991E-01
   1.67000000E+00  2.09704583E-01  3.75759023E-01
   1.68000000E+00  2.13479680E-01  3.79255668E-01
   1.69000000E+00  2.17289600E-01  3.82723515E-01
   1.70000000E+00  2.21134049E-01  3.86161139E-01
   1.71000000E+00  2.25012717E-01  3.89567099E-01
   1.72000000E+00  2.28925281E-01  3.92939943E-01
   1.73000000E+00  2.32871401E-01  3.96278207E-01
   1.74000000E+00  2.36850725E-01  3.99580411E-01
   1.75000000E+00  2.40862884E-01  4.02845067E-01
   1.76000000E+00  2.44907496E-01  4.06070672E-01
   1.77000000E+00  2.48984162E-01  4.09255712E-01
   1.78000000E+00  2.53092470E-01  4.12398665E-01
   1.79000000E+00  2.57231990E-01  4.15497996E-01
   1.80000000E+00  2.61402279E-01  4.18552160E-01
   1.81000000E+00  2.65602878E-01  4.21559602E-01
   1.82000000E+00  2.69833310E-01  4.24518760E-01
   1.83000000E+00  2.74093087E-01  4.27428061E-01
   1.84000000E+00  2.78381700E-01  4.30285925E-01
   1.85000000E+00  2.82698628E-01  4.33090764E-01
   1.86000000E+00  2.87043333E-01  4.35840984E-01
   1.87000000E+00  2.91415261E-01  4.38534981E-01
   1.88000000E+00  2.95813840E-01  4.41171150E-01
   1.89000000E+00  3.00238485E-01  4.43747875E-01
   1.90000000E+00  3.04688594E-01  4.46263539E-01
   1.91000000E+00  3.09163547E-01  4.48716520E-01
   1.92000000E+00  3.13662710E-01  4.51105190E-01
   1.93000000E+00  3.18185431E-01  4.53427919E-01
   1.94000000E+00  3.22731043E-01  4.55683075E-01
   1.95000000E+00  3.27298862E-01  4.57869023E-01
   1.96000000E+00  3.31888187E-01  4.59984129E-01
   1.97000000E+00  3.36498303E-01  4.62026754E-01
   1.98000000E+00  3.41128476E-01  4.63995262E-01
   1.99000000E+00  3.45777956E-01  4.65888016E-01
   2.00000000E+00  3.50445978E-01  4.67703381E-01
   2.01000000E+00  3.55131760E-01  4.69439726E-01
   2.02000000E+00  3.59834504E-01  4.71095420E-01
   2.03000000E+00  3.64553394E-01  4.72668835E-01
   2.04000000E+00  3.69287601E-01  4.74158348E-01
   2.05000000E+00  3.74036276E-01  4.75562339E-01
   2.06000000E+00  3.78798557E-01  4.76879198E-01
   2.07000000E+00  3.83573564E-01  4.78107316E-01
   2.08000000E+00  3.88360402E-01  4.79245064E-01
   2.09000000E+00  3.93158279E-01  4.80326966E-01
   2.10000000E+00  3.97966873E-01  4.81388271E-01
   2.11000000E+00  4.02785974E-01  4.82428444E-01
   2.12000000E+00  4.07615369E-01  4.83446981E-01
   2.13000000E+00  4.12454840E-01  4.84443379E-01
   2.14000000E+00  4.17304162E-01  4.85417136E-01
   2.15000000E+00  4.22163105E-01  4.86367751E-01
   2.16000000E+00  4.27031438E-01  4.87294725E-01
   2.17000000E+00  4.31908919E-01  4.88197560E-01
   2.18000000E+00  4.36795307E-01  4.89075757E-01
   2.19000000E+00  4.41690351E-01  4.89928823E-01
   2.20000000E+00  4.46593798E-01  4.90756263E-01
   2.21000000E+00  4.51505389E-01  4.91557584E-01
   2.22000000E+00  4.56424861E-01  4.92332296E-01
   2.23000000E+00  4.61351945E-01  4.93079910E-01
   2.24000000E+00  4.66286367E-01  4.93799939E-01
   2.25000000E+00  4.71227850E-01  4.94491897E-01
   2.26000000E+00  4.76176110E-01  4.95155300E-01
   2.27000000E+00  4.81130859E-01  4.95789668E-01
   2.28000000E+00  4.86091805E-01  4.96394520E-01
   2.29000000E+00  4.91058650E-01  4.96969382E-01
   2.30000000E+00  4.96031091E-01  4.97513778E-01
   2.31000000E+00  5.01008822E-01  4.98027236E-01
   2.32000000E+00  5.05991531E-01  4.98509288E-01
   2.33000000E+00  5.10978901E-01  4.98959465E-01
   2.34000000E+00  5.15970612E-01  4.99377304E-01
   2.35000000E+00  5.20966338E-01  4.99762343E-01
   2.36000000E+00  5.25965748E-01  5.00114126E-01
   2.37000000E+00  5.30968508E-01  5.00432197E-01
   2.38000000E+00  5.35974279E-01  5.00716103E-01
   2.39000000E+00  5.40982715E-01  5.00965396E-01
   2.40000000E+00  5.45993470E-01  5.01179631E-01
   2.41000000E+00  5.51006189E-01  5.01358365E-01
   2.42000000E+00  5.56020517E-01  5.01501160E-01
   2.43000000E+00  5.61036091E-01  5.01607582E-01
   2.44000000E+00  5.66052546E-01  5.01677199E-01
   2.45000000E+00  5.71069511E-01  5.01709584E-01
   2.46000000E+00  5.76086612E-01  5.01704314E-01
   2.47000000E+00  5.81103471E-01  5.01660971E-01
   2.48000000E+00  5.86119703E-01  5.01579139E-01
   2.49000000E+00  5.91134924E-01  5.01458406E-01
   2.50000000E+00  5.96148740E-01  5.01298368E-01
   2.51000000E+00  6.01160759E-01  5.01098622E-01
   2.52000000E+00  6.06170579E-01  5.00858771E-01
   2.53000000E+00  6.11177799E-01  5.00578422E-01
   2.54000000E+00  6.16182011E-01  5.00257187E-01
   2.55000000E+00  6.21182805E-01  4.99894683E-01
   2.56000000E+00  6.26179766E-01  4.99490533E-01
   2.57000000E+00  6.31172476E-01  4.99044363E-01
   2.58000000E+00  6.36160512E-01  4.98555805E-01
   2.59000000E+00  6.41143449E-01  4.98024497E-01
   2.60000000E+00  6.46120858E-01  4.97450080E-01
   2.61000000E+00  6.51092306E-01  4.96832203E-01
   2.62000000E+00  6.56057356E-01  4.96170519E-01
   2.63000000E+00  6.61015569E-01  4.95464688E-01
   2.64000000E+00  6.65966502E-01  4.94714373E-01
   2.65000000E+00  6.70909707E-01  4.93919246E-01
   2.66000000E+00  6.75844736E-01  4.93078984E-01
   2.67000000E+00  6.80771136E-01  4.92193266E-01
   2.68000000E+00  6.85688449E-01  4.91261783E-01
   2.69000000E+00  6.90596218E-01  4.90284228E-01
   2.70000000E+00  6.95493979E-01  4.89260303E-01
   2.71000000E+00  7.00381268E-01  4.88189714E-01
   2.72000000E+00  7.05257617E-01  4.87072175E-01
   2.73000000E+00  7.10122554E-01  4.85907403E-01
   2.74000000E+00  7.14975607E-01  4.84695127E-01
   2.75000000E+00  7.19816298E-01  4.83435078E-01
   2.76000000E+00  7.24644148E-01  4.82126995E-01
   2.77000000E+00  7.29458677E-01  4.80770625E-01
   2.78000000E+00  7.34259399E-01  4.79365719E-01
   2.79000000E+00  7.39045828E-01  4.77912038E-01
   2.80000000E+00  7.43817476E-01  4.76409347E-01
   2.81000000E+00  7.48573851E-01  4.74857420E-01
   2.82000000E+00  7.53314460E-01  4.73256039E-01
   2.83000000E+00  7.58038806E-01  4.71604988E-01
   2.84000000E+00  7.62746393E-01  4.69904065E-01
   2.85000000E+00  7.67436721E-01  4.68153071E-01
   2.86000000E+00  7.72109287E-01  4.66351813E-01
   2.87000000E+00  7.76763589E-01  4.64500110E-01
   2.88000000E+00  7.81399121E-01  4.62597786E-01
   2.89000000E+00  7.86015375E-01  4.60644670E-01
   2.90000000E+00  7.90611844E-01  4.58640603E-01
   2.91000000E+00  7.95188017E-01  4.56585430E-01
   2.92000000E+00  7.99743382E-01  4.54479005E-01
   2.93000000E+00  8.04277426E-01  4.52321190E-01
   2.94000000E+00  8.08789634E-01  4.50111855E-01
   2.95000000E+00  8.13279491E-01  4.47850876E-01
   2.96000000E+00  8.17746479E-01  4.45538137E-01
   2.97000000E+00  8.22190081E-01  4.43173531E-01
   2.98000000E+00  8.26609776E-01  4.40756959E-01
   2.99000000E+00  8.31005046E-01  4.38288329E-01
   3.00000000E+00  8.35375369E-01  4.35767556E-01
   3.01000000E+00  8.39720223E-01  4.33194566E-01
   3.02000000E+00  8.44039086E-01  4.30569288E-01
   3.03000000E+00  8.48331435E-01  4.27891667E-01
   3.04000000E+00  8.52596745E-01  4.25161646E-01
   3.05000000E+00  8.56834493E-01  4.22379184E-01
   3.06000000E+00  8.61044154E-01  4.19544244E-01
   3.07000000E+00  8.65225203E-01  4.16656799E-01
   3.08000000E+00  8.69377114E-01  4.13716829E-01
   3.09000000E+00  8.73499364E-01  4.10724323E-01
   3.10000000E+00  8.77591426E-01  4.07679279E-01
   3.11000000E+00  8.81652774E-01  4.04581700E-01
   3.12000000E+00  8.85682885E-01  4.01431601E-01
   3.13000000E+00  8.89681232E-01  3.98229002E-01
   3.14000000E+00  8.93647290E-01  3.94973935E-01
   3.15000000E+00  8.97580535E-01  3.91666433E-01
   3.16000000E+00  9.01480444E-01  3.88306545E-01
   3.17000000E+00  9.05346492E-01  3.84894328E-01
   3.18000000E+00  9.09178156E-01  3.81429840E-01
   3.19000000E+00  9.12974915E-01  3.77913154E-01
   3.20000000E+00  9.16736246E-01  3.74344350E-01
   3.21000000E+00  9.20461628E-01  3.70723515E-01
   3.22000000E+00  9.24150543E-01  3.67050744E-01
   3.23000000E+00  9.27802470E-01  3.63326141E-01
   3.24000000E+00  9.31416893E-01  3.59549821E-01
   3.25000000E+00  9.34993295E-01  3.55721905E-01
   3.26000000E+00  9.38531160E-01  3.51842516E-01
   3.27000000E+00  9.42029974E-01  3.47911794E-01
   3.28000000E+00  9.45489225E-01  3.43929889E-01
   3.29000000E+00  9.48908402E-01  3.39896952E-01
   3.30000000E+00  9.52286994E-01  3.35813141E-01
   3.31000000E+00  9.55624495E-01  3.31678627E-01
   3.32000000E+00  9.58920399E-01  3.27493591E-01
   3.33000000E+00  9.62174200E-01  3.23258219E-01
   3.34000000E+00  9.65385396E-01  3.18972707E-01
   3.35000000E+00  9.68553487E-01  3.14637254E-01
   3.36000000E+00  9.71677975E-01  3.10252069E-01
   3.37000000E+00  9.74758364E-01  3.05817377E-01
   3.38000000E+00  9.77794158E-01  3.01333403E-01
   3.39000000E+00  9.80784868E-01  2.96800381E-01
   3.40000000E+00  9.83730003E-01  2.92218555E-01
   3.41000000E+00  9.86629077E-01  2.87588175E-01
   3.42000000E+00  9.89481606E-01  2.82909503E-01
   3.43000000E+00  9.92287107E-01  2.78182804E-01
   3.44000000E+00  9.95045103E-01  2.73408351E-01
   3.45000000E+00  9.97755116E-01  2.68586427E-01
   3.46000000E+00  1.00041667E+00  2.63717328E-01
   3.47000000E+00  1.00302931E+00  2.58801349E-01
   3.48000000E+00  1.00559255E+00  2.53838796E-01
   3.49000000E+00  1.00810593E+00  2.48829984E-01
   3.50000000E+00  1.01056899E+00  2.43775230E-01
   3.51000000E+00  1.01298128E+00  2.38674868E-01
   3.52000000E+00  1.01534234E+00  2.33529236E-01
   3.53000000E+00  1.01765172E+00  2.28338677E-01
   3.54000000E+00  1.01990896E+00  2.23103541E-01
   3.55000000E+00  1.02211364E+00  2.17824190E-01
   3.56000000E+00  1.02426530E+00  2.12500992E-01
   3.57000000E+00  1.02636351E+00  2.07134321E-01
   3.58000000E+00  1.02840784E+00  2.01724557E-01
   3.59000000E+00  1.03039786E+00  1.96272090E-01
   3.60000000E+00  1.03233314E+00  1.90777317E-01
   3.61000000E+00  1.03421327E+00  1.85240641E-01
   3.62000000E+00  1.03603782E+00  1.79662474E-01
   3.63000000E+00  1.03780638E+00  1.74043234E-01
   3.64000000E+00  1.03951855E+00  1.68383344E-01
   3.65000000E+00  1.04117391E+00  1.62683234E-01
   3.66000000E+00  1.04277208E+00  1.56943348E-01
   3.67000000E+00  1.04431265E+00  1.51164129E-01
   3.68000000E+00  1.04579523E+00  1.45346029E-01
   3.69000000E+00  1.04721944E+00  1.39489507E-01
   3.70000000E+00  1.04858490E+00  1.33595030E-01
   3.71000000E+00  1.04989122E+00  1.27663073E-01
   3.72000000E+00  1.05113804E+00  1.21694112E-01
   3.73000000E+00  1.05232498E+00  1.15688631E-01
   3.74000000E+00  1.05345169E+00  1.09647126E-01
   3.75000000E+00  1.05451780E+00  1.03570093E-01
   3.76000000E+00  1.05552297E+00  9.74580390E-02
   3.77000000E+00  1.05646685E+00  9.13114761E-02
   3.78000000E+00  1.05734909E+00  8.51309230E-02
   3.79000000E+00  1.05816936E+00  7.89168986E-02
   3.80000000E+00  1.05892732E+00  7.26699336E-02
   3.81000000E+00  1.05962265E+00  6.63905669E-02
   3.82000000E+00  1.06025502E+00  6.00793374E-02
   3.83000000E+00  1.06082413E+00  5.37367933E-02
   3.84000000E+00  1.06132966E+00  4.73634860E-02
   3.85000000E+00  1.06177130E+00  4.09599754E-02
   3.86000000E+00  1.06214876E+00  3.45268256E-02
   3.87000000E+00  1.06246174E+00  2.80646040E-02
   3.88000000E+00  1.06270995E+00  2.15738900E-02
   3.89000000E+00  1.06289312E+00  1.50552665E-02
   3.90000000E+00  1.06301097E+00  8.50931750E-03
