 # Radial wave functions calculated by RADIAL.
 # **** Schrodinger Eq. Numerical potential.
 #      Input potential file: potential_1T2x.dat  
 #      Free state: E= 1.359724E+00, L=   0  (EPS= 1.0E-15)
 #        Inner phase shift= 2.493277123696288E+00
 #      Coulomb phase shift= 2.742930388807551E-01  (ETA=-6.064170E-01)
 #      Matching radius: RAD(  850)= 8.490000000000000E+00
 #       R              P(R)            Q(R)
   0.00000000E+00  0.00000000E+00  0.00000000E+00
   1.00000000E-02  7.76926363E-02  7.30031118E+00
   2.00000000E-02  1.46255655E-01  6.42430251E+00
   3.00000000E-02  2.06409891E-01  5.61766409E+00
   4.00000000E-02  2.58822789E-01  4.87519115E+00
   5.00000000E-02  3.04111202E-01  4.19197519E+00
   6.00000000E-02  3.42844467E-01  3.56342233E+00
   7.00000000E-02  3.75547579E-01  2.98525914E+00
   8.00000000E-02  4.02704392E-01  2.45352892E+00
   9.00000000E-02  4.24760737E-01  1.96458219E+00
   1.00000000E-01  4.42127429E-01  1.51506275E+00
   1.10000000E-01  4.55183123E-01  1.10189115E+00
   1.20000000E-01  4.64276983E-01  7.22246643E-01
   1.30000000E-01  4.69731186E-01  3.73548713E-01
   1.40000000E-01  4.71843227E-01  5.34385507E-02
   1.50000000E-01  4.70888045E-01 -2.40239008E-01
   1.60000000E-01  4.67119974E-01 -5.09452707E-01
   1.70000000E-01  4.60774524E-01 -7.56001388E-01
   1.80000000E-01  4.52070001E-01 -9.81529139E-01
   1.90000000E-01  4.41208985E-01 -1.18753959E+00
   2.00000000E-01  4.28379666E-01 -1.37540905E+00
   2.10000000E-01  4.13757059E-01 -1.54639841E+00
   2.20000000E-01  3.97504099E-01 -1.70166421E+00
   2.30000000E-01  3.79772637E-01 -1.84226861E+00
   2.40000000E-01  3.60704334E-01 -1.96918838E+00
   2.50000000E-01  3.40431478E-01 -2.08332314E+00
   2.60000000E-01  3.19077715E-01 -2.18550269E+00
   2.70000000E-01  2.96758713E-01 -2.27649369E+00
   2.80000000E-01  2.73582765E-01 -2.35700565E+00
   2.90000000E-01  2.49651333E-01 -2.42769623E+00
   3.00000000E-01  2.25059538E-01 -2.48917614E+00
   3.10000000E-01  1.99896615E-01 -2.54201339E+00
   3.20000000E-01  1.74246311E-01 -2.58673722E+00
   3.30000000E-01  1.48187265E-01 -2.62384150E+00
   3.40000000E-01  1.21793338E-01 -2.65378790E+00
   3.50000000E-01  9.51339231E-02 -2.67700864E+00
   3.60000000E-01  6.82742301E-02 -2.69390900E+00
   3.70000000E-01  4.12755401E-02 -2.70486952E+00
   3.80000000E-01  1.41954440E-02 -2.71024805E+00
   3.90000000E-01 -1.29119396E-02 -2.71038153E+00
   4.00000000E-01 -3.99957640E-02 -2.70558761E+00
   4.10000000E-01 -6.70082684E-02 -2.69616609E+00
   4.20000000E-01 -9.39046065E-02 -2.68240027E+00
   4.30000000E-01 -1.20642687E-01 -2.66455807E+00
   4.40000000E-01 -1.47183027E-01 -2.64289317E+00
   4.50000000E-01 -1.73488611E-01 -2.61764594E+00
   4.60000000E-01 -1.99524766E-01 -2.58904428E+00
   4.70000000E-01 -2.25259037E-01 -2.55730449E+00
   4.80000000E-01 -2.50661081E-01 -2.52263196E+00
   4.90000000E-01 -2.75702552E-01 -2.48522182E+00
   5.00000000E-01 -3.00357011E-01 -2.44525954E+00
   5.10000000E-01 -3.24599825E-01 -2.40292153E+00
   5.20000000E-01 -3.48408083E-01 -2.35837560E+00
   5.30000000E-01 -3.71760511E-01 -2.31178145E+00
   5.40000000E-01 -3.94637392E-01 -2.26329111E+00
   5.50000000E-01 -4.17020495E-01 -2.21304933E+00
   5.60000000E-01 -4.38893001E-01 -2.16119397E+00
   5.70000000E-01 -4.60239434E-01 -2.10785630E+00
   5.80000000E-01 -4.81045603E-01 -2.05316139E+00
   5.90000000E-01 -5.01298536E-01 -1.99722837E+00
   6.00000000E-01 -5.20986423E-01 -1.94017073E+00
   6.10000000E-01 -5.40098562E-01 -1.88209656E+00
   6.20000000E-01 -5.58625309E-01 -1.82310885E+00
   6.30000000E-01 -5.76558022E-01 -1.76330568E+00
   6.40000000E-01 -5.93889016E-01 -1.70278046E+00
   6.50000000E-01 -6.10611521E-01 -1.64162216E+00
   6.60000000E-01 -6.26719632E-01 -1.57991547E+00
   6.70000000E-01 -6.42208272E-01 -1.51774102E+00
   6.80000000E-01 -6.57073150E-01 -1.45517558E+00
   6.90000000E-01 -6.71310724E-01 -1.39229218E+00
   7.00000000E-01 -6.84918165E-01 -1.32916029E+00
   7.10000000E-01 -6.97893322E-01 -1.26584602E+00
   7.20000000E-01 -7.10234688E-01 -1.20241223E+00
   7.30000000E-01 -7.21941368E-01 -1.13891866E+00
   7.40000000E-01 -7.33013051E-01 -1.07542212E+00
   7.50000000E-01 -7.43449980E-01 -1.01197655E+00
   7.60000000E-01 -7.53252923E-01 -9.48633198E-01
   7.70000000E-01 -7.62423148E-01 -8.85440738E-01
   7.80000000E-01 -7.70962395E-01 -8.22445357E-01
   7.90000000E-01 -7.78872858E-01 -7.59690895E-01
   8.00000000E-01 -7.86157155E-01 -6.97218922E-01
   8.10000000E-01 -7.92818310E-01 -6.35068839E-01
   8.20000000E-01 -7.98859730E-01 -5.73278018E-01
   8.30000000E-01 -8.04285186E-01 -5.11881854E-01
   8.40000000E-01 -8.09098794E-01 -4.50913857E-01
   8.50000000E-01 -8.13304996E-01 -3.90405754E-01
   8.60000000E-01 -8.16908542E-01 -3.30387565E-01
   8.70000000E-01 -8.19914475E-01 -2.70887675E-01
   8.80000000E-01 -8.22328113E-01 -2.11932916E-01
   8.90000000E-01 -8.24155035E-01 -1.53548645E-01
   9.00000000E-01 -8.25401068E-01 -9.57587976E-02
   9.10000000E-01 -8.26072268E-01 -3.85859673E-02
   9.20000000E-01 -8.26174915E-01  1.79485454E-02
   9.30000000E-01 -8.25715492E-01  7.38246474E-02
   9.40000000E-01 -8.24700680E-01  1.29023406E-01
   9.50000000E-01 -8.23137341E-01  1.83527020E-01
   9.60000000E-01 -8.21032513E-01  2.37318729E-01
   9.70000000E-01 -8.18393392E-01  2.90382767E-01
   9.80000000E-01 -8.15227332E-01  3.42704334E-01
   9.90000000E-01 -8.11541827E-01  3.94269540E-01
   1.00000000E+00 -8.07344506E-01  4.45065350E-01
   1.01000000E+00 -8.02643125E-01  4.95079553E-01
   1.02000000E+00 -7.97445559E-01  5.44300724E-01
   1.03000000E+00 -7.91759790E-01  5.92718172E-01
   1.04000000E+00 -7.85593908E-01  6.40321917E-01
   1.05000000E+00 -7.78956095E-01  6.87102622E-01
   1.06000000E+00 -7.71854628E-01  7.33051621E-01
   1.07000000E+00 -7.64297862E-01  7.78160838E-01
   1.08000000E+00 -7.56294235E-01  8.22422766E-01
   1.09000000E+00 -7.47852255E-01  8.65830449E-01
   1.10000000E+00 -7.38980495E-01  9.08377443E-01
   1.11000000E+00 -7.29687594E-01  9.50057800E-01
   1.12000000E+00 -7.19982246E-01  9.90866032E-01
   1.13000000E+00 -7.09873198E-01  1.03079710E+00
   1.14000000E+00 -6.99369244E-01  1.06984638E+00
   1.15000000E+00 -6.88479224E-01  1.10800965E+00
   1.16000000E+00 -6.77212017E-01  1.14528307E+00
   1.17000000E+00 -6.65576540E-01  1.18166316E+00
   1.18000000E+00 -6.53581742E-01  1.21714678E+00
   1.19000000E+00 -6.41236602E-01  1.25173111E+00
   1.20000000E+00 -6.28550126E-01  1.28541367E+00
   1.21000000E+00 -6.15531342E-01  1.31819224E+00
   1.22000000E+00 -6.02189301E-01  1.35006491E+00
   1.23000000E+00 -5.88533069E-01  1.38103002E+00
   1.24000000E+00 -5.74571730E-01  1.41108616E+00
   1.25000000E+00 -5.60314380E-01  1.44023221E+00
   1.26000000E+00 -5.45770123E-01  1.46846723E+00
   1.27000000E+00 -5.30948074E-01  1.49579054E+00
   1.28000000E+00 -5.15857353E-01  1.52220167E+00
   1.29000000E+00 -5.00507082E-01  1.54770034E+00
   1.30000000E+00 -4.84906387E-01  1.57228650E+00
   1.31000000E+00 -4.69064393E-01  1.59596027E+00
   1.32000000E+00 -4.52990222E-01  1.61872194E+00
   1.33000000E+00 -4.36692993E-01  1.64057203E+00
   1.34000000E+00 -4.20181818E-01  1.66151118E+00
   1.35000000E+00 -4.03465803E-01  1.68154024E+00
   1.36000000E+00 -3.86554044E-01  1.70066020E+00
   1.37000000E+00 -3.69455626E-01  1.71887221E+00
   1.38000000E+00 -3.52179622E-01  1.73617758E+00
   1.39000000E+00 -3.34735091E-01  1.75257779E+00
   1.40000000E+00 -3.17131078E-01  1.76807444E+00
   1.41000000E+00 -2.99376609E-01  1.78266929E+00
   1.42000000E+00 -2.81480692E-01  1.79636426E+00
   1.43000000E+00 -2.63452316E-01  1.80916140E+00
   1.44000000E+00 -2.45300449E-01  1.82106289E+00
   1.45000000E+00 -2.27034036E-01  1.83207106E+00
   1.46000000E+00 -2.08661998E-01  1.84218840E+00
   1.47000000E+00 -1.90193229E-01  1.85141752E+00
   1.48000000E+00 -1.71636599E-01  1.85976115E+00
   1.49000000E+00 -1.53000948E-01  1.86722219E+00
   1.50000000E+00 -1.34295087E-01  1.87380367E+00
   1.51000000E+00 -1.15527796E-01  1.87950875E+00
   1.52000000E+00 -9.67078221E-02  1.88434074E+00
   1.53000000E+00 -7.78438798E-02  1.88830308E+00
   1.54000000E+00 -5.89446475E-02  1.89139935E+00
   1.55000000E+00 -4.00187674E-02  1.89363328E+00
   1.56000000E+00 -2.10748436E-02  1.89500873E+00
   1.57000000E+00 -2.12144094E-03  1.89552973E+00
   1.58000000E+00  1.68329166E-02  1.89520042E+00
   1.59000000E+00  3.57797474E-02  1.89402511E+00
   1.60000000E+00  5.47106137E-02  1.89200825E+00
   1.61000000E+00  7.36171227E-02  1.88915445E+00
   1.62000000E+00  9.24909286E-02  1.88546845E+00
   1.63000000E+00  1.11323734E-01  1.88095515E+00
   1.64000000E+00  1.30107291E-01  1.87561963E+00
   1.65000000E+00  1.48833403E-01  1.86946709E+00
   1.66000000E+00  1.67493927E-01  1.86250291E+00
   1.67000000E+00  1.86080774E-01  1.85473262E+00
   1.68000000E+00  2.04585912E-01  1.84616193E+00
   1.69000000E+00  2.23001364E-01  1.83679669E+00
   1.70000000E+00  2.41319217E-01  1.82664293E+00
   1.71000000E+00  2.59531615E-01  1.81570685E+00
   1.72000000E+00  2.77630768E-01  1.80399482E+00
   1.73000000E+00  2.95608947E-01  1.79151336E+00
   1.74000000E+00  3.13458492E-01  1.77826920E+00
   1.75000000E+00  3.31171811E-01  1.76426921E+00
   1.76000000E+00  3.48741381E-01  1.74952047E+00
   1.77000000E+00  3.66159749E-01  1.73403021E+00
   1.78000000E+00  3.83419538E-01  1.71780586E+00
   1.79000000E+00  4.00513445E-01  1.70085502E+00
   1.80000000E+00  4.17434243E-01  1.68318549E+00
   1.81000000E+00  4.34174785E-01  1.66480523E+00
   1.82000000E+00  4.50728006E-01  1.64572242E+00
   1.83000000E+00  4.67086920E-01  1.62594539E+00
   1.84000000E+00  4.83244628E-01  1.60548269E+00
   1.85000000E+00  4.99194317E-01  1.58434304E+00
   1.86000000E+00  5.14929262E-01  1.56253536E+00
   1.87000000E+00  5.30442828E-01  1.54006877E+00
   1.88000000E+00  5.45728472E-01  1.51695258E+00
   1.89000000E+00  5.60779745E-01  1.49319627E+00
   1.90000000E+00  5.75590296E-01  1.46880954E+00
   1.91000000E+00  5.90153868E-01  1.44380228E+00
   1.92000000E+00  6.04464306E-01  1.41818457E+00
   1.93000000E+00  6.18515559E-01  1.39196669E+00
   1.94000000E+00  6.32301675E-01  1.36515911E+00
   1.95000000E+00  6.45816811E-01  1.33777251E+00
   1.96000000E+00  6.59055231E-01  1.30981773E+00
   1.97000000E+00  6.72011308E-01  1.28130585E+00
   1.98000000E+00  6.84679528E-01  1.25224811E+00
   1.99000000E+00  6.97054489E-01  1.22265596E+00
   2.00000000E+00  7.09130905E-01  1.19254104E+00
   2.01000000E+00  7.20903607E-01  1.16191519E+00
   2.02000000E+00  7.32367545E-01  1.13079041E+00
   2.03000000E+00  7.43517793E-01  1.09917894E+00
   2.04000000E+00  7.54349543E-01  1.06709316E+00
   2.05000000E+00  7.64858117E-01  1.03454567E+00
   2.06000000E+00  7.75038960E-01  1.00154924E+00
   2.07000000E+00  7.84887648E-01  9.68116829E-01
   2.08000000E+00  7.94399887E-01  9.34261513E-01
   2.09000000E+00  8.03571759E-01  9.00070444E-01
   2.10000000E+00  8.12400472E-01  8.65632181E-01
   2.11000000E+00  8.20883630E-01  8.30961951E-01
   2.12000000E+00  8.29018988E-01  7.96074944E-01
   2.13000000E+00  8.36804456E-01  7.60986237E-01
   2.14000000E+00  8.44238091E-01  7.25710803E-01
   2.15000000E+00  8.51318099E-01  6.90263504E-01
   2.16000000E+00  8.58042837E-01  6.54659094E-01
   2.17000000E+00  8.64410806E-01  6.18912210E-01
   2.18000000E+00  8.70420655E-01  5.83037386E-01
   2.19000000E+00  8.76071176E-01  5.47049038E-01
   2.20000000E+00  8.81361305E-01  5.10961469E-01
   2.21000000E+00  8.86290122E-01  4.74788867E-01
   2.22000000E+00  8.90856846E-01  4.38545307E-01
   2.23000000E+00  8.95060838E-01  4.02244745E-01
   2.24000000E+00  8.98901597E-01  3.65901023E-01
   2.25000000E+00  9.02378760E-01  3.29527859E-01
   2.26000000E+00  9.05492101E-01  2.93138859E-01
   2.27000000E+00  9.08241529E-01  2.56747505E-01
   2.28000000E+00  9.10627088E-01  2.20367159E-01
   2.29000000E+00  9.12648953E-01  1.84011063E-01
   2.30000000E+00  9.14307434E-01  1.47692332E-01
   2.31000000E+00  9.15602968E-01  1.11423962E-01
   2.32000000E+00  9.16536124E-01  7.52188225E-02
   2.33000000E+00  9.17107598E-01  3.90896588E-02
   2.34000000E+00  9.17318212E-01  3.04908503E-03
   2.35000000E+00  9.17168916E-01 -3.28904065E-02
   2.36000000E+00  9.16660782E-01 -6.87164567E-02
   2.37000000E+00  9.15795006E-01 -1.04416835E-01
   2.38000000E+00  9.14572905E-01 -1.39979438E-01
   2.39000000E+00  9.12995917E-01 -1.75392297E-01
   2.40000000E+00  9.11065598E-01 -2.10643576E-01
   2.41000000E+00  9.08783623E-01 -2.45721574E-01
   2.42000000E+00  9.06151782E-01 -2.80614720E-01
   2.43000000E+00  9.03171982E-01 -3.15311586E-01
   2.44000000E+00  8.99846243E-01 -3.49800873E-01
   2.45000000E+00  8.96176694E-01 -3.84071427E-01
   2.46000000E+00  8.92165580E-01 -4.18112229E-01
   2.47000000E+00  8.87815252E-01 -4.51912403E-01
   2.48000000E+00  8.83128170E-01 -4.85461213E-01
   2.49000000E+00  8.78106901E-01 -5.18748065E-01
   2.50000000E+00  8.72754116E-01 -5.51762510E-01
   2.51000000E+00  8.67072593E-01 -5.84494245E-01
   2.52000000E+00  8.61065208E-01 -6.16933110E-01
   2.53000000E+00  8.54734940E-01 -6.49069095E-01
   2.54000000E+00  8.48084868E-01 -6.80892336E-01
   2.55000000E+00  8.41118168E-01 -7.12393120E-01
   2.56000000E+00  8.33838113E-01 -7.43561883E-01
   2.57000000E+00  8.26248069E-01 -7.74389215E-01
   2.58000000E+00  8.18351497E-01 -8.04865857E-01
   2.59000000E+00  8.10151951E-01 -8.34982705E-01
   2.60000000E+00  8.01653072E-01 -8.64730809E-01
   2.61000000E+00  7.92858593E-01 -8.94101377E-01
   2.62000000E+00  7.83772332E-01 -9.23085772E-01
   2.63000000E+00  7.74398193E-01 -9.51675519E-01
   2.64000000E+00  7.64740165E-01 -9.79862299E-01
   2.65000000E+00  7.54802318E-01 -1.00763796E+00
   2.66000000E+00  7.44588803E-01 -1.03499449E+00
   2.67000000E+00  7.34103851E-01 -1.06192408E+00
   2.68000000E+00  7.23351770E-01 -1.08841905E+00
   2.69000000E+00  7.12336944E-01 -1.11447191E+00
   2.70000000E+00  7.01063830E-01 -1.14007530E+00
   2.71000000E+00  6.89536960E-01 -1.16522206E+00
   2.72000000E+00  6.77760934E-01 -1.18990520E+00
   2.73000000E+00  6.65740424E-01 -1.21411788E+00
   2.74000000E+00  6.53480167E-01 -1.23785343E+00
   2.75000000E+00  6.40984968E-01 -1.26110536E+00
   2.76000000E+00  6.28259693E-01 -1.28386737E+00
   2.77000000E+00  6.15309274E-01 -1.30613328E+00
   2.78000000E+00  6.02138701E-01 -1.32789715E+00
   2.79000000E+00  5.88753024E-01 -1.34915315E+00
   2.80000000E+00  5.75157349E-01 -1.36989569E+00
   2.81000000E+00  5.61356840E-01 -1.39011929E+00
   2.82000000E+00  5.47356711E-01 -1.40981871E+00
   2.83000000E+00  5.33162230E-01 -1.42898883E+00
   2.84000000E+00  5.18778715E-01 -1.44762476E+00
   2.85000000E+00  5.04211531E-01 -1.46572175E+00
   2.86000000E+00  4.89466092E-01 -1.48327525E+00
   2.87000000E+00  4.74547853E-01 -1.50028089E+00
   2.88000000E+00  4.59462314E-01 -1.51673447E+00
   2.89000000E+00  4.44215017E-01 -1.53263197E+00
   2.90000000E+00  4.28811541E-01 -1.54796958E+00
   2.91000000E+00  4.13257504E-01 -1.56274364E+00
   2.92000000E+00  3.97558558E-01 -1.57695069E+00
   2.93000000E+00  3.81720391E-01 -1.59058745E+00
   2.94000000E+00  3.65748720E-01 -1.60365082E+00
   2.95000000E+00  3.49649295E-01 -1.61613789E+00
   2.96000000E+00  3.33427893E-01 -1.62804592E+00
   2.97000000E+00  3.17090316E-01 -1.63937239E+00
   2.98000000E+00  3.00642391E-01 -1.65011492E+00
   2.99000000E+00  2.84089971E-01 -1.66027135E+00
   3.00000000E+00  2.67438925E-01 -1.66983969E+00
   3.01000000E+00  2.50695143E-01 -1.67881813E+00
   3.02000000E+00  2.33864534E-01 -1.68720506E+00
   3.03000000E+00  2.16953019E-01 -1.69499905E+00
   3.04000000E+00  1.99966533E-01 -1.70219886E+00
   3.05000000E+00  1.82911026E-01 -1.70880341E+00
   3.06000000E+00  1.65792452E-01 -1.71481184E+00
   3.07000000E+00  1.48616778E-01 -1.72022346E+00
   3.08000000E+00  1.31389974E-01 -1.72503776E+00
   3.09000000E+00  1.14118015E-01 -1.72925443E+00
   3.10000000E+00  9.68068782E-02 -1.73287332E+00
   3.11000000E+00  7.94625412E-02 -1.73589448E+00
   3.12000000E+00  6.20909802E-02 -1.73831816E+00
   3.13000000E+00  4.46981683E-02 -1.74014476E+00
   3.14000000E+00  2.72900733E-02 -1.74137488E+00
   3.15000000E+00  9.87265639E-03 -1.74200930E+00
   3.16000000E+00 -7.54813024E-03 -1.74204899E+00
   3.17000000E+00 -2.49663448E-02 -1.74149509E+00
   3.18000000E+00 -4.23760578E-02 -1.74034892E+00
   3.19000000E+00 -5.97713540E-02 -1.73861199E+00
   3.20000000E+00 -7.71463340E-02 -1.73628598E+00
   3.21000000E+00 -9.44951162E-02 -1.73337275E+00
   3.22000000E+00 -1.11811838E-01 -1.72987434E+00
   3.23000000E+00 -1.29090660E-01 -1.72579297E+00
   3.24000000E+00 -1.46325763E-01 -1.72113102E+00
   3.25000000E+00 -1.63511353E-01 -1.71589106E+00
   3.26000000E+00 -1.80641666E-01 -1.71007582E+00
   3.27000000E+00 -1.97710962E-01 -1.70368823E+00
   3.28000000E+00 -2.14713533E-01 -1.69673136E+00
   3.29000000E+00 -2.31643702E-01 -1.68920846E+00
   3.30000000E+00 -2.48495827E-01 -1.68112295E+00
   3.31000000E+00 -2.65264298E-01 -1.67247843E+00
   3.32000000E+00 -2.81943544E-01 -1.66327864E+00
   3.33000000E+00 -2.98528033E-01 -1.65352751E+00
   3.34000000E+00 -3.15012270E-01 -1.64322911E+00
   3.35000000E+00 -3.31390805E-01 -1.63238771E+00
   3.36000000E+00 -3.47658229E-01 -1.62100769E+00
   3.37000000E+00 -3.63809179E-01 -1.60909362E+00
   3.38000000E+00 -3.79838337E-01 -1.59665024E+00
   3.39000000E+00 -3.95740435E-01 -1.58368240E+00
   3.40000000E+00 -4.11510254E-01 -1.57019515E+00
   3.41000000E+00 -4.27142624E-01 -1.55619367E+00
   3.42000000E+00 -4.42632431E-01 -1.54168329E+00
   3.43000000E+00 -4.57974612E-01 -1.52666950E+00
   3.44000000E+00 -4.73164162E-01 -1.51115792E+00
   3.45000000E+00 -4.88196130E-01 -1.49515434E+00
   3.46000000E+00 -5.03065628E-01 -1.47866466E+00
   3.47000000E+00 -5.17767824E-01 -1.46169496E+00
   3.48000000E+00 -5.32297948E-01 -1.44425142E+00
   3.49000000E+00 -5.46651294E-01 -1.42634038E+00
   3.50000000E+00 -5.60823219E-01 -1.40796832E+00
   3.51000000E+00 -5.74809145E-01 -1.38914183E+00
   3.52000000E+00 -5.88604563E-01 -1.36986766E+00
   3.53000000E+00 -6.02205029E-01 -1.35015265E+00
   3.54000000E+00 -6.15606170E-01 -1.33000380E+00
   3.55000000E+00 -6.28803682E-01 -1.30942823E+00
   3.56000000E+00 -6.41793336E-01 -1.28843316E+00
   3.57000000E+00 -6.54570972E-01 -1.26702595E+00
   3.58000000E+00 -6.67132506E-01 -1.24521407E+00
   3.59000000E+00 -6.79473930E-01 -1.22300510E+00
   3.60000000E+00 -6.91591310E-01 -1.20040675E+00
   3.61000000E+00 -7.03480793E-01 -1.17742681E+00
   3.62000000E+00 -7.15138601E-01 -1.15407320E+00
   3.63000000E+00 -7.26561038E-01 -1.13035394E+00
   3.64000000E+00 -7.37744488E-01 -1.10627715E+00
   3.65000000E+00 -7.48685416E-01 -1.08185104E+00
   3.66000000E+00 -7.59380372E-01 -1.05708393E+00
   3.67000000E+00 -7.69825986E-01 -1.03198424E+00
   3.68000000E+00 -7.80018976E-01 -1.00656045E+00
   3.69000000E+00 -7.89956144E-01 -9.80821172E-01
   3.70000000E+00 -7.99634377E-01 -9.54775072E-01
   3.71000000E+00 -8.09050652E-01 -9.28430912E-01
   3.72000000E+00 -8.18202031E-01 -9.01797529E-01
   3.73000000E+00 -8.27085668E-01 -8.74883840E-01
   3.74000000E+00 -8.35698804E-01 -8.47698842E-01
   3.75000000E+00 -8.44038771E-01 -8.20251596E-01
   3.76000000E+00 -8.52102992E-01 -7.92551235E-01
   3.77000000E+00 -8.59888982E-01 -7.64606961E-01
   3.78000000E+00 -8.67394349E-01 -7.36428036E-01
   3.79000000E+00 -8.74616792E-01 -7.08023781E-01
   3.80000000E+00 -8.81554105E-01 -6.79403583E-01
   3.81000000E+00 -8.88204175E-01 -6.50576877E-01
   3.82000000E+00 -8.94564985E-01 -6.21553150E-01
   3.83000000E+00 -9.00634613E-01 -5.92341938E-01
   3.84000000E+00 -9.06411231E-01 -5.62952824E-01
   3.85000000E+00 -9.11893109E-01 -5.33395433E-01
   3.86000000E+00 -9.17078611E-01 -5.03679435E-01
   3.87000000E+00 -9.21966201E-01 -4.73814529E-01
   3.88000000E+00 -9.26554438E-01 -4.43810449E-01
   3.89000000E+00 -9.30841979E-01 -4.13676963E-01
   3.90000000E+00 -9.34827578E-01 -3.83423867E-01
