# Interpolated potential function.
#  r             r*V(r)
   0.000000E+00 -6.000000E+00
   2.500000E-03 -5.964664E+00
   5.000000E-03 -5.929350E+00
   7.500000E-03 -5.894082E+00
   1.000000E-02 -5.858880E+00
   1.250000E-02 -5.823767E+00
   1.500000E-02 -5.788760E+00
   1.750000E-02 -5.753876E+00
   2.000000E-02 -5.719132E+00
   2.250000E-02 -5.684544E+00
   2.500000E-02 -5.650125E+00
   2.750000E-02 -5.615888E+00
   3.000000E-02 -5.581846E+00
   3.250000E-02 -5.548011E+00
   3.500000E-02 -5.514394E+00
   3.750000E-02 -5.481003E+00
   4.000000E-02 -5.447849E+00
   4.250000E-02 -5.414940E+00
   4.500000E-02 -5.382283E+00
   4.750000E-02 -5.349885E+00
   5.000000E-02 -5.317753E+00
   5.250000E-02 -5.285893E+00
   5.500000E-02 -5.254311E+00
   5.750000E-02 -5.223010E+00
   6.000000E-02 -5.191995E+00
   6.250000E-02 -5.161270E+00
   6.500000E-02 -5.130839E+00
   6.750000E-02 -5.100703E+00
   7.000000E-02 -5.070866E+00
   7.250000E-02 -5.041330E+00
   7.500000E-02 -5.012096E+00
   7.750000E-02 -4.983166E+00
   8.000000E-02 -4.954541E+00
   8.250000E-02 -4.926221E+00
   8.500000E-02 -4.898208E+00
   8.750000E-02 -4.870500E+00
   9.000000E-02 -4.843098E+00
   9.250000E-02 -4.816002E+00
   9.500000E-02 -4.789212E+00
   9.750000E-02 -4.762725E+00
   1.000000E-01 -4.736542E+00
   1.025000E-01 -4.710661E+00
   1.050000E-01 -4.685081E+00
   1.075000E-01 -4.659800E+00
   1.100000E-01 -4.634817E+00
   1.125000E-01 -4.610130E+00
   1.150000E-01 -4.585737E+00
   1.175000E-01 -4.561635E+00
   1.200000E-01 -4.537823E+00
   1.225000E-01 -4.514298E+00
   1.250000E-01 -4.491059E+00
   1.275000E-01 -4.468101E+00
   1.300000E-01 -4.445423E+00
   1.325000E-01 -4.423022E+00
   1.350000E-01 -4.400895E+00
   1.375000E-01 -4.379040E+00
   1.400000E-01 -4.357453E+00
   1.425000E-01 -4.336132E+00
   1.450000E-01 -4.315074E+00
   1.475000E-01 -4.294275E+00
   1.500000E-01 -4.273733E+00
   1.525000E-01 -4.253445E+00
   1.550000E-01 -4.233407E+00
   1.575000E-01 -4.213616E+00
   1.600000E-01 -4.194070E+00
   1.625000E-01 -4.174764E+00
   1.650000E-01 -4.155696E+00
   1.675000E-01 -4.136863E+00
   1.700000E-01 -4.118261E+00
   1.725000E-01 -4.099887E+00
   1.750000E-01 -4.081739E+00
   1.775000E-01 -4.063812E+00
   1.800000E-01 -4.046103E+00
   1.825000E-01 -4.028610E+00
   1.850000E-01 -4.011329E+00
   1.875000E-01 -3.994256E+00
   1.900000E-01 -3.977390E+00
   1.925000E-01 -3.960726E+00
   1.950000E-01 -3.944262E+00
   1.975000E-01 -3.927995E+00
   2.000000E-01 -3.911921E+00
   2.025000E-01 -3.896037E+00
   2.050000E-01 -3.880341E+00
   2.075000E-01 -3.864829E+00
   2.100000E-01 -3.849498E+00
   2.125000E-01 -3.834345E+00
   2.150000E-01 -3.819368E+00
   2.175000E-01 -3.804563E+00
   2.200000E-01 -3.789927E+00
   2.225000E-01 -3.775458E+00
   2.250000E-01 -3.761153E+00
   2.275000E-01 -3.747009E+00
   2.300000E-01 -3.733024E+00
   2.325000E-01 -3.719194E+00
   2.350000E-01 -3.705517E+00
   2.375000E-01 -3.691990E+00
   2.400000E-01 -3.678611E+00
   2.425000E-01 -3.665377E+00
   2.450000E-01 -3.652285E+00
   2.475000E-01 -3.639333E+00
   2.500000E-01 -3.626519E+00
   2.525000E-01 -3.613840E+00
   2.550000E-01 -3.601293E+00
   2.575000E-01 -3.588876E+00
   2.600000E-01 -3.576587E+00
   2.625000E-01 -3.564424E+00
   2.650000E-01 -3.552383E+00
   2.675000E-01 -3.540464E+00
   2.700000E-01 -3.528664E+00
   2.725000E-01 -3.516980E+00
   2.750000E-01 -3.505411E+00
   2.775000E-01 -3.493954E+00
   2.800000E-01 -3.482607E+00
   2.825000E-01 -3.471368E+00
   2.850000E-01 -3.460236E+00
   2.875000E-01 -3.449207E+00
   2.900000E-01 -3.438281E+00
   2.925000E-01 -3.427455E+00
   2.950000E-01 -3.416728E+00
   2.975000E-01 -3.406098E+00
   3.000000E-01 -3.395562E+00
   3.025000E-01 -3.385119E+00
   3.050000E-01 -3.374767E+00
   3.075000E-01 -3.364505E+00
   3.100000E-01 -3.354331E+00
   3.125000E-01 -3.344243E+00
   3.150000E-01 -3.334239E+00
   3.175000E-01 -3.324319E+00
   3.200000E-01 -3.314480E+00
   3.225000E-01 -3.304721E+00
   3.250000E-01 -3.295040E+00
   3.275000E-01 -3.285436E+00
   3.300000E-01 -3.275907E+00
   3.325000E-01 -3.266452E+00
   3.350000E-01 -3.257070E+00
   3.375000E-01 -3.247759E+00
   3.400000E-01 -3.238518E+00
   3.425000E-01 -3.229346E+00
   3.450000E-01 -3.220241E+00
   3.475000E-01 -3.211201E+00
   3.500000E-01 -3.202227E+00
   3.525000E-01 -3.193316E+00
   3.550000E-01 -3.184467E+00
   3.575000E-01 -3.175680E+00
   3.600000E-01 -3.166952E+00
   3.625000E-01 -3.158283E+00
   3.650000E-01 -3.149673E+00
   3.675000E-01 -3.141118E+00
   3.700000E-01 -3.132620E+00
   3.725000E-01 -3.124176E+00
   3.750000E-01 -3.115786E+00
   3.775000E-01 -3.107448E+00
   3.800000E-01 -3.099162E+00
   3.825000E-01 -3.090927E+00
   3.850000E-01 -3.082742E+00
   3.875000E-01 -3.074605E+00
   3.900000E-01 -3.066517E+00
   3.925000E-01 -3.058475E+00
   3.950000E-01 -3.050480E+00
   3.975000E-01 -3.042530E+00
   4.000000E-01 -3.034625E+00
   4.025000E-01 -3.026764E+00
   4.050000E-01 -3.018946E+00
   4.075000E-01 -3.011170E+00
   4.100000E-01 -3.003436E+00
   4.125000E-01 -2.995743E+00
   4.150000E-01 -2.988089E+00
   4.175000E-01 -2.980475E+00
   4.200000E-01 -2.972900E+00
   4.225000E-01 -2.965363E+00
   4.250000E-01 -2.957863E+00
   4.275000E-01 -2.950401E+00
   4.300000E-01 -2.942974E+00
   4.325000E-01 -2.935583E+00
   4.350000E-01 -2.928227E+00
   4.375000E-01 -2.920906E+00
   4.400000E-01 -2.913618E+00
   4.425000E-01 -2.906364E+00
   4.450000E-01 -2.899142E+00
   4.475000E-01 -2.891953E+00
   4.500000E-01 -2.884795E+00
   4.525000E-01 -2.877669E+00
   4.550000E-01 -2.870573E+00
   4.575000E-01 -2.863508E+00
   4.600000E-01 -2.856473E+00
   4.625000E-01 -2.849467E+00
   4.650000E-01 -2.842490E+00
   4.675000E-01 -2.835541E+00
   4.700000E-01 -2.828621E+00
   4.725000E-01 -2.821728E+00
   4.750000E-01 -2.814863E+00
   4.775000E-01 -2.808024E+00
   4.800000E-01 -2.801212E+00
   4.825000E-01 -2.794426E+00
   4.850000E-01 -2.787666E+00
   4.875000E-01 -2.780932E+00
   4.900000E-01 -2.774222E+00
   4.925000E-01 -2.767537E+00
   4.950000E-01 -2.760877E+00
   4.975000E-01 -2.754240E+00
   5.000000E-01 -2.747628E+00
   5.025000E-01 -2.741039E+00
   5.050000E-01 -2.734473E+00
   5.075000E-01 -2.727931E+00
   5.100000E-01 -2.721411E+00
   5.125000E-01 -2.714914E+00
   5.150000E-01 -2.708438E+00
   5.175000E-01 -2.701985E+00
   5.200000E-01 -2.695553E+00
   5.225000E-01 -2.689142E+00
   5.250000E-01 -2.682753E+00
   5.275000E-01 -2.676385E+00
   5.300000E-01 -2.670037E+00
   5.325000E-01 -2.663710E+00
   5.350000E-01 -2.657403E+00
   5.375000E-01 -2.651117E+00
   5.400000E-01 -2.644850E+00
   5.425000E-01 -2.638603E+00
   5.450000E-01 -2.632376E+00
   5.475000E-01 -2.626168E+00
   5.500000E-01 -2.619979E+00
   5.525000E-01 -2.613809E+00
   5.550000E-01 -2.607658E+00
   5.575000E-01 -2.601526E+00
   5.600000E-01 -2.595412E+00
   5.625000E-01 -2.589317E+00
   5.650000E-01 -2.583239E+00
   5.675000E-01 -2.577180E+00
   5.700000E-01 -2.571139E+00
   5.725000E-01 -2.565116E+00
   5.750000E-01 -2.559110E+00
   5.775000E-01 -2.553122E+00
   5.800000E-01 -2.547151E+00
   5.825000E-01 -2.541198E+00
   5.850000E-01 -2.535262E+00
   5.875000E-01 -2.529343E+00
   5.900000E-01 -2.523441E+00
   5.925000E-01 -2.517556E+00
   5.950000E-01 -2.511688E+00
   5.975000E-01 -2.505836E+00
   6.000000E-01 -2.500001E+00
   6.025000E-01 -2.494183E+00
   6.050000E-01 -2.488381E+00
   6.075000E-01 -2.482595E+00
   6.100000E-01 -2.476826E+00
   6.125000E-01 -2.471073E+00
   6.150000E-01 -2.465336E+00
   6.175000E-01 -2.459616E+00
   6.200000E-01 -2.453911E+00
   6.225000E-01 -2.448222E+00
   6.250000E-01 -2.442549E+00
   6.275000E-01 -2.436892E+00
   6.300000E-01 -2.431250E+00
   6.325000E-01 -2.425624E+00
   6.350000E-01 -2.420014E+00
   6.375000E-01 -2.414420E+00
   6.400000E-01 -2.408841E+00
   6.425000E-01 -2.403277E+00
   6.450000E-01 -2.397729E+00
   6.475000E-01 -2.392196E+00
   6.500000E-01 -2.386679E+00
   6.525000E-01 -2.381177E+00
   6.550000E-01 -2.375690E+00
   6.575000E-01 -2.370218E+00
   6.600000E-01 -2.364762E+00
   6.625000E-01 -2.359321E+00
   6.650000E-01 -2.353895E+00
   6.675000E-01 -2.348484E+00
   6.700000E-01 -2.343088E+00
   6.725000E-01 -2.337707E+00
   6.750000E-01 -2.332342E+00
   6.775000E-01 -2.326991E+00
   6.800000E-01 -2.321655E+00
   6.825000E-01 -2.316334E+00
   6.850000E-01 -2.311028E+00
   6.875000E-01 -2.305737E+00
   6.900000E-01 -2.300461E+00
   6.925000E-01 -2.295200E+00
   6.950000E-01 -2.289954E+00
   6.975000E-01 -2.284723E+00
   7.000000E-01 -2.279506E+00
   7.025000E-01 -2.274304E+00
   7.050000E-01 -2.269117E+00
   7.075000E-01 -2.263944E+00
   7.100000E-01 -2.258787E+00
   7.125000E-01 -2.253645E+00
   7.150000E-01 -2.248517E+00
   7.175000E-01 -2.243404E+00
   7.200000E-01 -2.238306E+00
   7.225000E-01 -2.233222E+00
   7.250000E-01 -2.228154E+00
   7.275000E-01 -2.223099E+00
   7.300000E-01 -2.218060E+00
   7.325000E-01 -2.213035E+00
   7.350000E-01 -2.208026E+00
   7.375000E-01 -2.203031E+00
   7.400000E-01 -2.198051E+00
   7.425000E-01 -2.193086E+00
   7.450000E-01 -2.188135E+00
   7.475000E-01 -2.183199E+00
   7.500000E-01 -2.178278E+00
   7.525000E-01 -2.173371E+00
   7.550000E-01 -2.168479E+00
   7.575000E-01 -2.163602E+00
   7.600000E-01 -2.158740E+00
   7.625000E-01 -2.153893E+00
   7.650000E-01 -2.149060E+00
   7.675000E-01 -2.144243E+00
   7.700000E-01 -2.139440E+00
   7.725000E-01 -2.134652E+00
   7.750000E-01 -2.129878E+00
   7.775000E-01 -2.125119E+00
   7.800000E-01 -2.120375E+00
   7.825000E-01 -2.115646E+00
   7.850000E-01 -2.110932E+00
   7.875000E-01 -2.106232E+00
   7.900000E-01 -2.101548E+00
   7.925000E-01 -2.096878E+00
   7.950000E-01 -2.092224E+00
   7.975000E-01 -2.087584E+00
   8.000000E-01 -2.082959E+00
   8.025000E-01 -2.078349E+00
   8.050000E-01 -2.073754E+00
   8.075000E-01 -2.069173E+00
   8.100000E-01 -2.064608E+00
   8.125000E-01 -2.060057E+00
   8.150000E-01 -2.055522E+00
   8.175000E-01 -2.051001E+00
   8.200000E-01 -2.046495E+00
   8.225000E-01 -2.042004E+00
   8.250000E-01 -2.037528E+00
   8.275000E-01 -2.033068E+00
   8.300000E-01 -2.028622E+00
   8.325000E-01 -2.024191E+00
   8.350000E-01 -2.019775E+00
   8.375000E-01 -2.015375E+00
   8.400000E-01 -2.010989E+00
   8.425000E-01 -2.006618E+00
   8.450000E-01 -2.002263E+00
   8.475000E-01 -1.997922E+00
   8.500000E-01 -1.993597E+00
   8.525000E-01 -1.989287E+00
   8.550000E-01 -1.984991E+00
   8.575000E-01 -1.980711E+00
   8.600000E-01 -1.976446E+00
   8.625000E-01 -1.972196E+00
   8.650000E-01 -1.967962E+00
   8.675000E-01 -1.963742E+00
   8.700000E-01 -1.959538E+00
   8.725000E-01 -1.955349E+00
   8.750000E-01 -1.951175E+00
   8.775000E-01 -1.947016E+00
   8.800000E-01 -1.942872E+00
   8.825000E-01 -1.938744E+00
   8.850000E-01 -1.934630E+00
   8.875000E-01 -1.930533E+00
   8.900000E-01 -1.926450E+00
   8.925000E-01 -1.922383E+00
   8.950000E-01 -1.918330E+00
   8.975000E-01 -1.914294E+00
   9.000000E-01 -1.910272E+00
   9.025000E-01 -1.906266E+00
   9.050000E-01 -1.902275E+00
   9.075000E-01 -1.898299E+00
   9.100000E-01 -1.894339E+00
   9.125000E-01 -1.890394E+00
   9.150000E-01 -1.886465E+00
   9.175000E-01 -1.882551E+00
   9.200000E-01 -1.878652E+00
   9.225000E-01 -1.874768E+00
   9.250000E-01 -1.870900E+00
   9.275000E-01 -1.867047E+00
   9.300000E-01 -1.863210E+00
   9.325000E-01 -1.859388E+00
   9.350000E-01 -1.855582E+00
   9.375000E-01 -1.851791E+00
   9.400000E-01 -1.848016E+00
   9.425000E-01 -1.844256E+00
   9.450000E-01 -1.840511E+00
   9.475000E-01 -1.836782E+00
   9.500000E-01 -1.833068E+00
   9.525000E-01 -1.829370E+00
   9.550000E-01 -1.825687E+00
   9.575000E-01 -1.822020E+00
   9.600000E-01 -1.818368E+00
   9.625000E-01 -1.814732E+00
   9.650000E-01 -1.811111E+00
   9.675000E-01 -1.807506E+00
   9.700000E-01 -1.803917E+00
   9.725000E-01 -1.800343E+00
   9.750000E-01 -1.796784E+00
   9.775000E-01 -1.793241E+00
   9.800000E-01 -1.789714E+00
   9.825000E-01 -1.786202E+00
   9.850000E-01 -1.782706E+00
   9.875000E-01 -1.779225E+00
   9.900000E-01 -1.775760E+00
   9.925000E-01 -1.772310E+00
   9.950000E-01 -1.768876E+00
   9.975000E-01 -1.765458E+00
   1.000000E+00 -1.762055E+00
   1.002500E+00 -1.758668E+00
   1.005000E+00 -1.755296E+00
   1.007500E+00 -1.751940E+00
   1.010000E+00 -1.748600E+00
   1.012500E+00 -1.745275E+00
   1.015000E+00 -1.741966E+00
   1.017500E+00 -1.738672E+00
   1.020000E+00 -1.735394E+00
   1.022500E+00 -1.732132E+00
   1.025000E+00 -1.728886E+00
   1.027500E+00 -1.725655E+00
   1.030000E+00 -1.722439E+00
   1.032500E+00 -1.719238E+00
   1.035000E+00 -1.716053E+00
   1.037500E+00 -1.712885E+00
   1.040000E+00 -1.709734E+00
   1.040250E+00 -1.709420E+00
   1.040500E+00 -1.709106E+00
   1.040750E+00 -1.708792E+00
   1.041000E+00 -1.708478E+00
   1.041250E+00 -1.708164E+00
   1.041500E+00 -1.707850E+00
   1.041750E+00 -1.707536E+00
   1.042000E+00 -1.707223E+00
   1.042250E+00 -1.706910E+00
   1.042500E+00 -1.706597E+00
   1.042750E+00 -1.706285E+00
   1.043000E+00 -1.705972E+00
   1.043250E+00 -1.705659E+00
   1.043500E+00 -1.705347E+00
   1.043750E+00 -1.705034E+00
   1.044000E+00 -1.704722E+00
   1.044250E+00 -1.704410E+00
   1.044500E+00 -1.704099E+00
   1.044750E+00 -1.703787E+00
   1.045000E+00 -1.703476E+00
   1.045250E+00 -1.703165E+00
   1.045500E+00 -1.702854E+00
   1.045750E+00 -1.702543E+00
   1.046000E+00 -1.702232E+00
   1.046250E+00 -1.701921E+00
   1.046500E+00 -1.701611E+00
   1.046750E+00 -1.701300E+00
   1.047000E+00 -1.700990E+00
   1.047250E+00 -1.700680E+00
   1.047500E+00 -1.700370E+00
   1.047750E+00 -1.700061E+00
   1.048000E+00 -1.699751E+00
   1.048250E+00 -1.699442E+00
   1.048500E+00 -1.699132E+00
   1.048750E+00 -1.698823E+00
   1.049000E+00 -1.698514E+00
   1.049250E+00 -1.698205E+00
   1.049500E+00 -1.697897E+00
   1.049750E+00 -1.697588E+00
   1.050000E+00 -1.697280E+00
   1.050250E+00 -1.696972E+00
   1.050500E+00 -1.696664E+00
   1.050750E+00 -1.696356E+00
   1.051000E+00 -1.696048E+00
   1.051250E+00 -1.695740E+00
   1.051500E+00 -1.695433E+00
   1.051750E+00 -1.695126E+00
   1.052000E+00 -1.694819E+00
   1.052250E+00 -1.694512E+00
   1.052500E+00 -1.694205E+00
   1.052750E+00 -1.693899E+00
   1.053000E+00 -1.693592E+00
   1.053250E+00 -1.693286E+00
   1.053500E+00 -1.692980E+00
   1.053750E+00 -1.692674E+00
   1.054000E+00 -1.692368E+00
   1.054250E+00 -1.692063E+00
   1.054500E+00 -1.691757E+00
   1.054750E+00 -1.691452E+00
   1.055000E+00 -1.691147E+00
   1.055250E+00 -1.690842E+00
   1.055500E+00 -1.690537E+00
   1.055750E+00 -1.690232E+00
   1.056000E+00 -1.689927E+00
   1.056250E+00 -1.689623E+00
   1.056500E+00 -1.689319E+00
   1.056750E+00 -1.689015E+00
   1.057000E+00 -1.688711E+00
   1.057250E+00 -1.688407E+00
   1.057500E+00 -1.688104E+00
   1.057750E+00 -1.687800E+00
   1.058000E+00 -1.687497E+00
   1.058250E+00 -1.687194E+00
   1.058500E+00 -1.686891E+00
   1.058750E+00 -1.686588E+00
   1.059000E+00 -1.686285E+00
   1.059250E+00 -1.685982E+00
   1.059500E+00 -1.685680E+00
   1.059750E+00 -1.685378E+00
   1.060000E+00 -1.685076E+00
   1.060250E+00 -1.684774E+00
   1.060500E+00 -1.684472E+00
   1.060750E+00 -1.684171E+00
   1.061000E+00 -1.683869E+00
   1.061250E+00 -1.683568E+00
   1.061500E+00 -1.683267E+00
   1.061750E+00 -1.682966E+00
   1.062000E+00 -1.682665E+00
   1.062250E+00 -1.682365E+00
   1.062500E+00 -1.682064E+00
   1.062750E+00 -1.681764E+00
   1.063000E+00 -1.681464E+00
   1.063250E+00 -1.681164E+00
   1.063500E+00 -1.680864E+00
   1.063750E+00 -1.680564E+00
   1.064000E+00 -1.680264E+00
   1.064250E+00 -1.679965E+00
   1.064500E+00 -1.679666E+00
   1.064750E+00 -1.679367E+00
   1.065000E+00 -1.679068E+00
   1.065250E+00 -1.678769E+00
   1.065500E+00 -1.678471E+00
   1.065750E+00 -1.678172E+00
   1.066000E+00 -1.677874E+00
   1.066250E+00 -1.677576E+00
   1.066500E+00 -1.677278E+00
   1.066750E+00 -1.676980E+00
   1.067000E+00 -1.676682E+00
   1.067250E+00 -1.676384E+00
   1.067500E+00 -1.676087E+00
   1.067750E+00 -1.675790E+00
   1.068000E+00 -1.675493E+00
   1.068250E+00 -1.675196E+00
   1.068500E+00 -1.674900E+00
   1.068750E+00 -1.674603E+00
   1.069000E+00 -1.674307E+00
   1.069250E+00 -1.674011E+00
   1.069500E+00 -1.673715E+00
   1.069750E+00 -1.673419E+00
   1.070000E+00 -1.673123E+00
   1.070250E+00 -1.672827E+00
   1.070500E+00 -1.672532E+00
   1.070750E+00 -1.672236E+00
   1.071000E+00 -1.671941E+00
   1.071250E+00 -1.671646E+00
   1.071500E+00 -1.671351E+00
   1.071750E+00 -1.671057E+00
   1.072000E+00 -1.670762E+00
   1.072250E+00 -1.670468E+00
   1.072500E+00 -1.670173E+00
   1.072750E+00 -1.669879E+00
   1.073000E+00 -1.669585E+00
   1.073250E+00 -1.669291E+00
   1.073500E+00 -1.668998E+00
   1.073750E+00 -1.668704E+00
   1.074000E+00 -1.668411E+00
   1.074250E+00 -1.668118E+00
   1.074500E+00 -1.667825E+00
   1.074750E+00 -1.667533E+00
   1.075000E+00 -1.667240E+00
   1.075250E+00 -1.666948E+00
   1.075500E+00 -1.666655E+00
   1.075750E+00 -1.666363E+00
   1.076000E+00 -1.666071E+00
   1.076250E+00 -1.665779E+00
   1.076500E+00 -1.665487E+00
   1.076750E+00 -1.665196E+00
   1.077000E+00 -1.664904E+00
   1.077250E+00 -1.664613E+00
   1.077500E+00 -1.664322E+00
   1.077750E+00 -1.664031E+00
   1.078000E+00 -1.663740E+00
   1.078250E+00 -1.663450E+00
   1.078500E+00 -1.663159E+00
   1.078750E+00 -1.662869E+00
   1.079000E+00 -1.662579E+00
   1.079250E+00 -1.662289E+00
   1.079500E+00 -1.661999E+00
   1.079750E+00 -1.661710E+00
   1.080000E+00 -1.661420E+00
   1.080250E+00 -1.661131E+00
   1.080500E+00 -1.660841E+00
   1.080750E+00 -1.660552E+00
   1.081000E+00 -1.660263E+00
   1.081250E+00 -1.659974E+00
   1.081500E+00 -1.659686E+00
   1.081750E+00 -1.659397E+00
   1.082000E+00 -1.659109E+00
   1.082250E+00 -1.658821E+00
   1.082500E+00 -1.658533E+00
   1.082750E+00 -1.658246E+00
   1.083000E+00 -1.657958E+00
   1.083250E+00 -1.657671E+00
   1.083500E+00 -1.657383E+00
   1.083750E+00 -1.657096E+00
   1.084000E+00 -1.656809E+00
   1.084250E+00 -1.656522E+00
   1.084500E+00 -1.656235E+00
   1.084750E+00 -1.655949E+00
   1.085000E+00 -1.655662E+00
   1.085250E+00 -1.655376E+00
   1.085500E+00 -1.655090E+00
   1.085750E+00 -1.654804E+00
   1.086000E+00 -1.654518E+00
   1.086250E+00 -1.654233E+00
   1.086500E+00 -1.653947E+00
   1.086750E+00 -1.653662E+00
   1.087000E+00 -1.653377E+00
   1.087250E+00 -1.653092E+00
   1.087500E+00 -1.652807E+00
   1.087750E+00 -1.652522E+00
   1.088000E+00 -1.652238E+00
   1.088250E+00 -1.651954E+00
   1.088500E+00 -1.651670E+00
   1.088750E+00 -1.651386E+00
   1.089000E+00 -1.651102E+00
   1.089250E+00 -1.650818E+00
   1.089500E+00 -1.650535E+00
   1.089750E+00 -1.650251E+00
   1.090000E+00 -1.649968E+00
   1.090250E+00 -1.649685E+00
   1.090500E+00 -1.649402E+00
   1.090750E+00 -1.649119E+00
   1.091000E+00 -1.648836E+00
   1.091250E+00 -1.648553E+00
   1.091500E+00 -1.648271E+00
   1.091750E+00 -1.647989E+00
   1.092000E+00 -1.647707E+00
   1.092250E+00 -1.647425E+00
   1.092500E+00 -1.647144E+00
   1.092750E+00 -1.646862E+00
   1.093000E+00 -1.646581E+00
   1.093250E+00 -1.646300E+00
   1.093500E+00 -1.646019E+00
   1.093750E+00 -1.645738E+00
   1.094000E+00 -1.645457E+00
   1.094250E+00 -1.645176E+00
   1.094500E+00 -1.644896E+00
   1.094750E+00 -1.644615E+00
   1.095000E+00 -1.644335E+00
   1.095250E+00 -1.644055E+00
   1.095500E+00 -1.643775E+00
   1.095750E+00 -1.643495E+00
   1.096000E+00 -1.643216E+00
   1.096250E+00 -1.642937E+00
   1.096500E+00 -1.642658E+00
   1.096750E+00 -1.642379E+00
   1.097000E+00 -1.642100E+00
   1.097250E+00 -1.641821E+00
   1.097500E+00 -1.641543E+00
   1.097750E+00 -1.641264E+00
   1.098000E+00 -1.640986E+00
   1.098250E+00 -1.640708E+00
   1.098500E+00 -1.640430E+00
   1.098750E+00 -1.640153E+00
   1.099000E+00 -1.639875E+00
   1.099250E+00 -1.639598E+00
   1.099500E+00 -1.639320E+00
   1.099750E+00 -1.639043E+00
   1.100000E+00 -1.638766E+00
   1.100250E+00 -1.638489E+00
   1.100500E+00 -1.638212E+00
   1.100750E+00 -1.637935E+00
   1.101000E+00 -1.637659E+00
   1.101250E+00 -1.637383E+00
   1.101500E+00 -1.637107E+00
   1.101750E+00 -1.636832E+00
