 # Radial wave functions calculated by RADIAL.
 # **** Schrodinger Eq. Numerical potential.
 #      Input potential file: potential_1T2y.dat  
 #      Free state: E= 4.409917E-01, L=   4  (EPS= 1.0E-15)
 #        Inner phase shift= 1.843567760292641E-02
 #      Coulomb phase shift=-1.613433535738960E+00  (ETA=-1.064838E+00)
 #      Matching radius: RAD(  896)= 8.949999999999999E+00
 #       R              P(R)            Q(R)
   0.00000000E+00  0.00000000E+00  0.00000000E+00
   1.00000000E-02  7.51182659E-13  3.74707639E-10
   2.00000000E-02  2.37595143E-11  5.91248575E-09
   3.00000000E-02  1.78376343E-10  2.95278719E-08
   4.00000000E-02  7.43317083E-10  9.20917873E-08
   5.00000000E-02  2.24370101E-09  2.21936147E-07
   6.00000000E-02  5.52340769E-09  4.54411384E-07
   7.00000000E-02  1.18132439E-08  8.31489875E-07
   8.00000000E-02  2.27953465E-08  1.40140868E-06
   9.00000000E-02  4.06641847E-08  2.21834572E-06
   1.00000000E-01  6.81844686E-08  3.34212409E-06
   1.10000000E-01  1.08746223E-07  4.83794013E-06
   1.20000000E-01  1.66417246E-07  6.77611142E-06
   1.30000000E-01  2.45993130E-07  9.23184151E-06
   1.40000000E-01  3.53045006E-07  1.22849990E-05
   1.50000000E-01  4.93965143E-07  1.60199085E-05
   1.60000000E-01  6.76010506E-07  2.05251527E-05
   1.70000000E-01  9.07344385E-07  2.58933828E-05
   1.80000000E-01  1.19707617E-06  3.22211384E-05
   1.90000000E-01  1.55529936E-06  3.96086734E-05
   2.00000000E-01  1.99312787E-06  4.81597908E-05
   2.10000000E-01  2.52273073E-06  5.79816820E-05
   2.20000000E-01  3.15736517E-06  6.91847743E-05
   2.30000000E-01  3.91140827E-06  8.18825834E-05
   2.40000000E-01  4.80038712E-06  9.61915722E-05
   2.50000000E-01  5.84100760E-06  1.12231015E-04
   2.60000000E-01  7.05118185E-06  1.30122870E-04
   2.70000000E-01  8.45005449E-06  1.49991652E-04
   2.80000000E-01  1.00580276E-05  1.71964317E-04
   2.90000000E-01  1.18967845E-05  1.96170149E-04
   3.00000000E-01  1.39893126E-05  2.22740650E-04
   3.10000000E-01  1.63599249E-05  2.51809445E-04
   3.20000000E-01  1.90342810E-05  2.83512178E-04
   3.30000000E-01  2.20394067E-05  3.17986426E-04
   3.40000000E-01  2.54037125E-05  3.55371609E-04
   3.50000000E-01  2.91570124E-05  3.95808911E-04
   3.60000000E-01  3.33305405E-05  4.39441201E-04
   3.70000000E-01  3.79569678E-05  4.86412963E-04
   3.80000000E-01  4.30704179E-05  5.36870228E-04
   3.90000000E-01  4.87064822E-05  5.90960504E-04
   4.00000000E-01  5.49022343E-05  6.48832723E-04
   4.10000000E-01  6.16962440E-05  7.10637182E-04
   4.20000000E-01  6.91285907E-05  7.76525486E-04
   4.30000000E-01  7.72408760E-05  8.46650503E-04
   4.40000000E-01  8.60762366E-05  9.21166312E-04
   4.50000000E-01  9.56793556E-05  1.00022816E-03
   4.60000000E-01  1.06096474E-04  1.08399243E-03
   4.70000000E-01  1.17375404E-04  1.17261657E-03
   4.80000000E-01  1.29565534E-04  1.26625910E-03
   4.90000000E-01  1.42717845E-04  1.36507954E-03
   5.00000000E-01  1.56884919E-04  1.46923838E-03
   5.10000000E-01  1.72120945E-04  1.57889706E-03
   5.20000000E-01  1.88481734E-04  1.69421795E-03
   5.30000000E-01  2.06024722E-04  1.81536427E-03
   5.40000000E-01  2.24808984E-04  1.94250010E-03
   5.50000000E-01  2.44895239E-04  2.07579035E-03
   5.60000000E-01  2.66345858E-04  2.21540071E-03
   5.70000000E-01  2.89224875E-04  2.36149762E-03
   5.80000000E-01  3.13597990E-04  2.51424829E-03
   5.90000000E-01  3.39532580E-04  2.67382059E-03
   6.00000000E-01  3.67097702E-04  2.84038308E-03
   6.10000000E-01  3.96364106E-04  3.01410497E-03
   6.20000000E-01  4.27404232E-04  3.19515607E-03
   6.30000000E-01  4.60292226E-04  3.38370677E-03
   6.40000000E-01  4.95103936E-04  3.57992804E-03
   6.50000000E-01  5.31916926E-04  3.78399132E-03
   6.60000000E-01  5.70810476E-04  3.99606858E-03
   6.70000000E-01  6.11865586E-04  4.21633223E-03
   6.80000000E-01  6.55164984E-04  4.44495508E-03
   6.90000000E-01  7.00793129E-04  4.68211032E-03
   7.00000000E-01  7.48836210E-04  4.92797149E-03
   7.10000000E-01  7.99382158E-04  5.18271245E-03
   7.20000000E-01  8.52520639E-04  5.44650729E-03
   7.30000000E-01  9.08343064E-04  5.71953033E-03
   7.40000000E-01  9.66942588E-04  6.00195609E-03
   7.50000000E-01  1.02841411E-03  6.29395918E-03
   7.60000000E-01  1.09285428E-03  6.59571434E-03
   7.70000000E-01  1.16036149E-03  6.90739631E-03
   7.80000000E-01  1.23103588E-03  7.22917984E-03
   7.90000000E-01  1.30497934E-03  7.56123963E-03
   8.00000000E-01  1.38229551E-03  7.90375020E-03
   8.10000000E-01  1.46308976E-03  8.25688594E-03
   8.20000000E-01  1.54746922E-03  8.62082102E-03
   8.30000000E-01  1.63554276E-03  8.99572932E-03
   8.40000000E-01  1.72742096E-03  9.38178434E-03
   8.50000000E-01  1.82321618E-03  9.77915918E-03
   8.60000000E-01  1.92304246E-03  1.01880265E-02
   8.70000000E-01  2.02701559E-03  1.06085583E-02
   8.80000000E-01  2.13525307E-03  1.10409261E-02
   8.90000000E-01  2.24787413E-03  1.14853006E-02
   9.00000000E-01  2.36499968E-03  1.19418520E-02
   9.10000000E-01  2.48675233E-03  1.24107494E-02
   9.20000000E-01  2.61325638E-03  1.28921610E-02
   9.30000000E-01  2.74463782E-03  1.33862542E-02
   9.40000000E-01  2.88102429E-03  1.38931951E-02
   9.50000000E-01  3.02254510E-03  1.44131489E-02
   9.60000000E-01  3.16933119E-03  1.49462795E-02
   9.70000000E-01  3.32151515E-03  1.54927493E-02
   9.80000000E-01  3.47923118E-03  1.60527193E-02
   9.90000000E-01  3.64261507E-03  1.66263493E-02
   1.00000000E+00  3.81180422E-03  1.72137973E-02
   1.01000000E+00  3.98693760E-03  1.78152195E-02
   1.02000000E+00  4.16815571E-03  1.84307706E-02
   1.03000000E+00  4.35560061E-03  1.90606031E-02
   1.04000000E+00  4.54941588E-03  1.97048680E-02
   1.05000000E+00  4.74974657E-03  2.03637134E-02
   1.06000000E+00  4.95673924E-03  2.10372861E-02
   1.07000000E+00  5.17054187E-03  2.17257300E-02
   1.08000000E+00  5.39130388E-03  2.24291868E-02
   1.09000000E+00  5.61917611E-03  2.31477959E-02
   1.10000000E+00  5.85431076E-03  2.38816938E-02
   1.11000000E+00  6.09686140E-03  2.46310142E-02
   1.12000000E+00  6.34698289E-03  2.53958883E-02
   1.13000000E+00  6.60483144E-03  2.61764441E-02
   1.14000000E+00  6.87056447E-03  2.69728066E-02
   1.15000000E+00  7.14434066E-03  2.77850974E-02
   1.16000000E+00  7.42631990E-03  2.86134351E-02
   1.17000000E+00  7.71666324E-03  2.94579347E-02
   1.18000000E+00  8.01553284E-03  3.03187077E-02
   1.19000000E+00  8.32309200E-03  3.11958618E-02
   1.20000000E+00  8.63950503E-03  3.20895010E-02
   1.21000000E+00  8.96493730E-03  3.29997253E-02
   1.22000000E+00  9.29955514E-03  3.39266308E-02
   1.23000000E+00  9.64352583E-03  3.48703091E-02
   1.24000000E+00  9.99701753E-03  3.58308478E-02
   1.25000000E+00  1.03601993E-02  3.68083299E-02
   1.26000000E+00  1.07332409E-02  3.78028338E-02
   1.27000000E+00  1.11163129E-02  3.88144331E-02
   1.28000000E+00  1.15095867E-02  3.98431969E-02
   1.29000000E+00  1.19132343E-02  4.08891890E-02
   1.30000000E+00  1.23274281E-02  4.19524682E-02
   1.31000000E+00  1.27523415E-02  4.30330880E-02
   1.32000000E+00  1.31881479E-02  4.41310966E-02
   1.33000000E+00  1.36350215E-02  4.52465366E-02
   1.34000000E+00  1.40931368E-02  4.63794450E-02
   1.35000000E+00  1.45626687E-02  4.75298530E-02
   1.36000000E+00  1.50437923E-02  4.86977859E-02
   1.37000000E+00  1.55366829E-02  4.98832630E-02
   1.38000000E+00  1.60415161E-02  5.10862972E-02
   1.39000000E+00  1.65584674E-02  5.23068951E-02
   1.40000000E+00  1.70877125E-02  5.35450572E-02
   1.41000000E+00  1.76294271E-02  5.48007770E-02
   1.42000000E+00  1.81837866E-02  5.60740413E-02
   1.43000000E+00  1.87509663E-02  5.73648303E-02
   1.44000000E+00  1.93311415E-02  5.86731169E-02
   1.45000000E+00  1.99244869E-02  5.99988669E-02
   1.46000000E+00  2.05311769E-02  6.13420391E-02
   1.47000000E+00  2.11513856E-02  6.27025846E-02
   1.48000000E+00  2.17852863E-02  6.40804472E-02
   1.49000000E+00  2.24330520E-02  6.54755628E-02
   1.50000000E+00  2.30948549E-02  6.68878596E-02
   1.51000000E+00  2.37708662E-02  6.83172580E-02
   1.52000000E+00  2.44612567E-02  6.97636702E-02
   1.53000000E+00  2.51661960E-02  7.12270005E-02
   1.54000000E+00  2.58858528E-02  7.27071444E-02
   1.55000000E+00  2.66203946E-02  7.42039896E-02
   1.56000000E+00  2.73699878E-02  7.57174149E-02
   1.57000000E+00  2.81347977E-02  7.72472906E-02
   1.58000000E+00  2.89149880E-02  7.87934780E-02
   1.59000000E+00  2.97107212E-02  8.03558298E-02
   1.60000000E+00  3.05221580E-02  8.19341896E-02
   1.61000000E+00  3.13494578E-02  8.35283920E-02
   1.62000000E+00  3.21927781E-02  8.51382624E-02
   1.63000000E+00  3.30522746E-02  8.67636167E-02
   1.64000000E+00  3.39281014E-02  8.84042616E-02
   1.65000000E+00  3.48204101E-02  9.00599942E-02
   1.66000000E+00  3.57293508E-02  9.17306021E-02
   1.67000000E+00  3.66550710E-02  9.34158630E-02
   1.68000000E+00  3.75977162E-02  9.51155451E-02
   1.69000000E+00  3.85574292E-02  9.68294064E-02
   1.70000000E+00  3.95343507E-02  9.85571953E-02
   1.71000000E+00  4.05286187E-02  1.00298650E-01
   1.72000000E+00  4.15403684E-02  1.02053499E-01
   1.73000000E+00  4.25697323E-02  1.03821459E-01
   1.74000000E+00  4.36168403E-02  1.05602239E-01
   1.75000000E+00  4.46818188E-02  1.07395536E-01
   1.76000000E+00  4.57647917E-02  1.09201036E-01
   1.77000000E+00  4.68658792E-02  1.11018417E-01
   1.78000000E+00  4.79851985E-02  1.12847344E-01
   1.79000000E+00  4.91228634E-02  1.14687474E-01
   1.80000000E+00  5.02789841E-02  1.16538450E-01
   1.81000000E+00  5.14536673E-02  1.18399907E-01
   1.82000000E+00  5.26470160E-02  1.20271470E-01
   1.83000000E+00  5.38591291E-02  1.22152750E-01
   1.84000000E+00  5.50901020E-02  1.24043351E-01
   1.85000000E+00  5.63400258E-02  1.25942863E-01
   1.86000000E+00  5.76089876E-02  1.27850867E-01
   1.87000000E+00  5.88970701E-02  1.29766934E-01
   1.88000000E+00  6.02043517E-02  1.31690623E-01
   1.89000000E+00  6.15309064E-02  1.33621481E-01
   1.90000000E+00  6.28768037E-02  1.35559048E-01
   1.91000000E+00  6.42421082E-02  1.37502849E-01
   1.92000000E+00  6.56268798E-02  1.39452401E-01
   1.93000000E+00  6.70311737E-02  1.41407208E-01
   1.94000000E+00  6.84550398E-02  1.43366767E-01
   1.95000000E+00  6.98985232E-02  1.45330560E-01
   1.96000000E+00  7.13616634E-02  1.47298062E-01
   1.97000000E+00  7.28444950E-02  1.49268734E-01
   1.98000000E+00  7.43470468E-02  1.51242029E-01
   1.99000000E+00  7.58693424E-02  1.53217389E-01
   2.00000000E+00  7.74113996E-02  1.55194244E-01
   2.01000000E+00  7.89732304E-02  1.57172016E-01
   2.02000000E+00  8.05548410E-02  1.59150115E-01
   2.03000000E+00  8.21562318E-02  1.61127941E-01
   2.04000000E+00  8.37773969E-02  1.63104884E-01
   2.05000000E+00  8.54183244E-02  1.65080324E-01
   2.06000000E+00  8.70789962E-02  1.67053631E-01
   2.07000000E+00  8.87593878E-02  1.69024166E-01
   2.08000000E+00  9.04594681E-02  1.70991271E-01
   2.09000000E+00  9.21792277E-02  1.72962736E-01
   2.10000000E+00  9.39187644E-02  1.74946661E-01
   2.11000000E+00  9.56782018E-02  1.76942842E-01
   2.12000000E+00  9.74576614E-02  1.78951083E-01
   2.13000000E+00  9.92572630E-02  1.80971184E-01
   2.14000000E+00  1.01077124E-01  1.83002943E-01
   2.15000000E+00  1.02917360E-01  1.85046157E-01
   2.16000000E+00  1.04778085E-01  1.87100620E-01
   2.17000000E+00  1.06659409E-01  1.89166125E-01
   2.18000000E+00  1.08561443E-01  1.91242461E-01
   2.19000000E+00  1.10484294E-01  1.93329416E-01
   2.20000000E+00  1.12428066E-01  1.95426774E-01
   2.21000000E+00  1.14392863E-01  1.97534320E-01
   2.22000000E+00  1.16378786E-01  1.99651833E-01
   2.23000000E+00  1.18385932E-01  2.01779092E-01
   2.24000000E+00  1.20414399E-01  2.03915872E-01
   2.25000000E+00  1.22464281E-01  2.06061946E-01
   2.26000000E+00  1.24535669E-01  2.08217086E-01
   2.27000000E+00  1.26628652E-01  2.10381060E-01
   2.28000000E+00  1.28743318E-01  2.12553632E-01
   2.29000000E+00  1.30879753E-01  2.14734568E-01
   2.30000000E+00  1.33038037E-01  2.16923626E-01
   2.31000000E+00  1.35218251E-01  2.19120565E-01
   2.32000000E+00  1.37420474E-01  2.21325142E-01
   2.33000000E+00  1.39644779E-01  2.23537108E-01
   2.34000000E+00  1.41891240E-01  2.25756214E-01
   2.35000000E+00  1.44159926E-01  2.27982209E-01
   2.36000000E+00  1.46450906E-01  2.30214836E-01
   2.37000000E+00  1.48764244E-01  2.32453840E-01
   2.38000000E+00  1.51100003E-01  2.34698959E-01
   2.39000000E+00  1.53458243E-01  2.36949932E-01
   2.40000000E+00  1.55839020E-01  2.39206493E-01
   2.41000000E+00  1.58242390E-01  2.41468375E-01
   2.42000000E+00  1.60668405E-01  2.43735307E-01
   2.43000000E+00  1.63117112E-01  2.46007018E-01
   2.44000000E+00  1.65588560E-01  2.48283231E-01
   2.45000000E+00  1.68082791E-01  2.50563669E-01
   2.46000000E+00  1.70599847E-01  2.52848051E-01
   2.47000000E+00  1.73139764E-01  2.55136095E-01
   2.48000000E+00  1.75702580E-01  2.57427515E-01
   2.49000000E+00  1.78288325E-01  2.59722024E-01
   2.50000000E+00  1.80897029E-01  2.62019331E-01
   2.51000000E+00  1.83528720E-01  2.64319145E-01
   2.52000000E+00  1.86183420E-01  2.66621169E-01
   2.53000000E+00  1.88861150E-01  2.68925107E-01
   2.54000000E+00  1.91561927E-01  2.71230660E-01
   2.55000000E+00  1.94285767E-01  2.73537523E-01
   2.56000000E+00  1.97032681E-01  2.75845395E-01
   2.57000000E+00  1.99802677E-01  2.78153968E-01
   2.58000000E+00  2.02595762E-01  2.80462933E-01
   2.59000000E+00  2.05411936E-01  2.82771979E-01
   2.60000000E+00  2.08251201E-01  2.85080793E-01
   2.61000000E+00  2.11113550E-01  2.87389060E-01
   2.62000000E+00  2.13998979E-01  2.89696462E-01
   2.63000000E+00  2.16907476E-01  2.92002679E-01
   2.64000000E+00  2.19839027E-01  2.94307391E-01
   2.65000000E+00  2.22793617E-01  2.96610272E-01
   2.66000000E+00  2.25771226E-01  2.98910999E-01
   2.67000000E+00  2.28771829E-01  3.01209242E-01
   2.68000000E+00  2.31795401E-01  3.03504673E-01
   2.69000000E+00  2.34841912E-01  3.05796960E-01
   2.70000000E+00  2.37911329E-01  3.08085771E-01
   2.71000000E+00  2.41003615E-01  3.10370771E-01
   2.72000000E+00  2.44118730E-01  3.12651621E-01
   2.73000000E+00  2.47256632E-01  3.14927985E-01
   2.74000000E+00  2.50417274E-01  3.17199522E-01
   2.75000000E+00  2.53600605E-01  3.19465890E-01
   2.76000000E+00  2.56806573E-01  3.21726747E-01
   2.77000000E+00  2.60035121E-01  3.23981747E-01
   2.78000000E+00  2.63286188E-01  3.26230545E-01
   2.79000000E+00  2.66559710E-01  3.28472792E-01
   2.80000000E+00  2.69855620E-01  3.30708139E-01
   2.81000000E+00  2.73173849E-01  3.32936236E-01
   2.82000000E+00  2.76514320E-01  3.35156731E-01
   2.83000000E+00  2.79876957E-01  3.37369272E-01
   2.84000000E+00  2.83261678E-01  3.39573503E-01
   2.85000000E+00  2.86668398E-01  3.41769070E-01
   2.86000000E+00  2.90097029E-01  3.43955616E-01
   2.87000000E+00  2.93547479E-01  3.46132783E-01
   2.88000000E+00  2.97019652E-01  3.48300213E-01
   2.89000000E+00  3.00513450E-01  3.50457547E-01
   2.90000000E+00  3.04028768E-01  3.52604423E-01
   2.91000000E+00  3.07565502E-01  3.54740482E-01
   2.92000000E+00  3.11123541E-01  3.56865359E-01
   2.93000000E+00  3.14702771E-01  3.58978693E-01
   2.94000000E+00  3.18303075E-01  3.61080121E-01
   2.95000000E+00  3.21924332E-01  3.63169277E-01
   2.96000000E+00  3.25566418E-01  3.65245797E-01
   2.97000000E+00  3.29229205E-01  3.67309317E-01
   2.98000000E+00  3.32912560E-01  3.69359469E-01
   2.99000000E+00  3.36616348E-01  3.71395888E-01
   3.00000000E+00  3.40340431E-01  3.73418206E-01
   3.01000000E+00  3.44084664E-01  3.75426058E-01
   3.02000000E+00  3.47848902E-01  3.77419075E-01
   3.03000000E+00  3.51632995E-01  3.79396890E-01
   3.04000000E+00  3.55436788E-01  3.81359136E-01
   3.05000000E+00  3.59260125E-01  3.83305444E-01
   3.06000000E+00  3.63102843E-01  3.85235447E-01
   3.07000000E+00  3.66964778E-01  3.87148777E-01
   3.08000000E+00  3.70845762E-01  3.89045067E-01
   3.09000000E+00  3.74745621E-01  3.90923948E-01
   3.10000000E+00  3.78664181E-01  3.92785053E-01
   3.11000000E+00  3.82601262E-01  3.94628014E-01
   3.12000000E+00  3.86556680E-01  3.96452465E-01
   3.13000000E+00  3.90530248E-01  3.98258042E-01
   3.14000000E+00  3.94521777E-01  4.00044372E-01
   3.15000000E+00  3.98531070E-01  4.01811095E-01
   3.16000000E+00  4.02557932E-01  4.03557843E-01
   3.17000000E+00  4.06602159E-01  4.05284250E-01
   3.18000000E+00  4.10663548E-01  4.06989954E-01
   3.19000000E+00  4.14741888E-01  4.08674591E-01
   3.20000000E+00  4.18836968E-01  4.10337800E-01
   3.21000000E+00  4.22948572E-01  4.11979217E-01
   3.22000000E+00  4.27076479E-01  4.13598481E-01
   3.23000000E+00  4.31220466E-01  4.15195232E-01
   3.24000000E+00  4.35380307E-01  4.16769111E-01
   3.25000000E+00  4.39555771E-01  4.18319759E-01
   3.26000000E+00  4.43746624E-01  4.19846819E-01
   3.27000000E+00  4.47952628E-01  4.21349934E-01
   3.28000000E+00  4.52173541E-01  4.22828751E-01
   3.29000000E+00  4.56409120E-01  4.24282915E-01
   3.30000000E+00  4.60659116E-01  4.25712074E-01
   3.31000000E+00  4.64923277E-01  4.27115876E-01
   3.32000000E+00  4.69201348E-01  4.28493972E-01
   3.33000000E+00  4.73493070E-01  4.29846013E-01
   3.34000000E+00  4.77798180E-01  4.31171653E-01
   3.35000000E+00  4.82116414E-01  4.32470548E-01
   3.36000000E+00  4.86447501E-01  4.33742352E-01
   3.37000000E+00  4.90791170E-01  4.34986726E-01
   3.38000000E+00  4.95147143E-01  4.36203330E-01
   3.39000000E+00  4.99515142E-01  4.37391822E-01
   3.40000000E+00  5.03894885E-01  4.38551868E-01
   3.41000000E+00  5.08286084E-01  4.39683132E-01
   3.42000000E+00  5.12688450E-01  4.40785282E-01
   3.43000000E+00  5.17101691E-01  4.41857989E-01
   3.44000000E+00  5.21525511E-01  4.42900921E-01
   3.45000000E+00  5.25959609E-01  4.43913754E-01
   3.46000000E+00  5.30403684E-01  4.44896162E-01
   3.47000000E+00  5.34857430E-01  4.45847825E-01
   3.48000000E+00  5.39320537E-01  4.46768422E-01
   3.49000000E+00  5.43792694E-01  4.47657635E-01
   3.50000000E+00  5.48273584E-01  4.48515147E-01
   3.51000000E+00  5.52762890E-01  4.49340649E-01
   3.52000000E+00  5.57260290E-01  4.50133827E-01
   3.53000000E+00  5.61765458E-01  4.50894376E-01
   3.54000000E+00  5.66278067E-01  4.51621989E-01
   3.55000000E+00  5.70797787E-01  4.52316363E-01
   3.56000000E+00  5.75324283E-01  4.52977198E-01
   3.57000000E+00  5.79857218E-01  4.53604198E-01
   3.58000000E+00  5.84396253E-01  4.54197069E-01
   3.59000000E+00  5.88941045E-01  4.54755517E-01
   3.60000000E+00  5.93491248E-01  4.55279254E-01
   3.61000000E+00  5.98046513E-01  4.55767995E-01
   3.62000000E+00  6.02606490E-01  4.56221456E-01
   3.63000000E+00  6.07170824E-01  4.56639359E-01
   3.64000000E+00  6.11739158E-01  4.57021424E-01
   3.65000000E+00  6.16311132E-01  4.57367380E-01
   3.66000000E+00  6.20886384E-01  4.57676956E-01
   3.67000000E+00  6.25464549E-01  4.57949884E-01
   3.68000000E+00  6.30045259E-01  4.58185899E-01
   3.69000000E+00  6.34628143E-01  4.58384740E-01
   3.70000000E+00  6.39212829E-01  4.58546151E-01
   3.71000000E+00  6.43798940E-01  4.58669877E-01
   3.72000000E+00  6.48386100E-01  4.58755665E-01
   3.73000000E+00  6.52973926E-01  4.58803271E-01
   3.74000000E+00  6.57562037E-01  4.58812449E-01
   3.75000000E+00  6.62150047E-01  4.58782960E-01
   3.76000000E+00  6.66737567E-01  4.58714568E-01
   3.77000000E+00  6.71324207E-01  4.58607038E-01
   3.78000000E+00  6.75909576E-01  4.58460140E-01
   3.79000000E+00  6.80493278E-01  4.58273650E-01
   3.80000000E+00  6.85074916E-01  4.58047346E-01
   3.81000000E+00  6.89654092E-01  4.57781011E-01
   3.82000000E+00  6.94230403E-01  4.57474429E-01
   3.83000000E+00  6.98803445E-01  4.57127389E-01
   3.84000000E+00  7.03372815E-01  4.56739685E-01
   3.85000000E+00  7.07938103E-01  4.56311114E-01
   3.86000000E+00  7.12498900E-01  4.55841479E-01
   3.87000000E+00  7.17054795E-01  4.55330583E-01
   3.88000000E+00  7.21605374E-01  4.54778238E-01
   3.89000000E+00  7.26150221E-01  4.54184259E-01
   3.90000000E+00  7.30688919E-01  4.53548459E-01
