 # Radial wave functions calculated by RADIAL.
 # **** Schrodinger Eq. Numerical potential.
 #      Input potential file: potential_2A1.dat   
 #      Free state: E= 4.409917E-01, L=   0  (EPS= 1.0E-15)
 #        Inner phase shift= 2.718705536604322E+00
 #      Coulomb phase shift=-5.989334651180464E+00  (ETA=-1.064839E+00)
 #      Matching radius: RAD(  829)= 8.279999999999999E+00
 #       R              P(R)            Q(R)
   0.00000000E+00  0.00000000E+00  0.00000000E+00
   1.00000000E-02  6.01829674E-02  5.65534791E+00
   2.00000000E-02  1.13302932E-01  4.97807504E+00
   3.00000000E-02  1.59925893E-01  4.35523698E+00
   4.00000000E-02  2.00575273E-01  3.78268737E+00
   5.00000000E-02  2.35734226E-01  3.25652196E+00
   6.00000000E-02  2.65848133E-01  2.77309145E+00
   7.00000000E-02  2.91327171E-01  2.32900404E+00
   8.00000000E-02  3.12548870E-01  1.92112157E+00
   9.00000000E-02  3.29860616E-01  1.54655108E+00
   1.00000000E-01  3.43582042E-01  1.20263304E+00
   1.10000000E-01  3.54007297E-01  8.86927996E-01
   1.20000000E-01  3.61407177E-01  5.97201841E-01
   1.30000000E-01  3.66031099E-01  3.31411039E-01
   1.40000000E-01  3.68108939E-01  8.76878508E-02
   1.50000000E-01  3.67852711E-01 -1.35673999E-01
   1.60000000E-01  3.65458119E-01 -3.40233092E-01
   1.70000000E-01  3.61105966E-01 -5.27413190E-01
   1.80000000E-01  3.54963436E-01 -6.98515360E-01
   1.90000000E-01  3.47185275E-01 -8.54729165E-01
   2.00000000E-01  3.37914843E-01 -9.97142989E-01
   2.10000000E-01  3.27285084E-01 -1.12675355E+00
   2.20000000E-01  3.15419396E-01 -1.24447445E+00
   2.30000000E-01  3.02432424E-01 -1.35114410E+00
   2.40000000E-01  2.88430777E-01 -1.44753283E+00
   2.50000000E-01  2.73513669E-01 -1.53434931E+00
   2.60000000E-01  2.57773516E-01 -1.61224641E+00
   2.70000000E-01  2.41296460E-01 -1.68182641E+00
   2.80000000E-01  2.24162852E-01 -1.74364573E+00
   2.90000000E-01  2.06447694E-01 -1.79821917E+00
   3.00000000E-01  1.88221028E-01 -1.84602376E+00
   3.10000000E-01  1.69548302E-01 -1.88750213E+00
   3.20000000E-01  1.50490698E-01 -1.92306565E+00
   3.30000000E-01  1.31105427E-01 -1.95309714E+00
   3.40000000E-01  1.11446004E-01 -1.97795337E+00
   3.50000000E-01  9.15624979E-02 -1.99796729E+00
   3.60000000E-01  7.15017596E-02 -2.01345003E+00
   3.70000000E-01  5.13076290E-02 -2.02469267E+00
   3.80000000E-01  3.10211290E-02 -2.03196791E+00
   3.90000000E-01  1.06806414E-02 -2.03553147E+00
   4.00000000E-01 -9.67793014E-03 -2.03562346E+00
   4.10000000E-01 -3.00210094E-02 -2.03246949E+00
   4.20000000E-01 -5.03172090E-02 -2.02628182E+00
   4.30000000E-01 -7.05372008E-02 -2.01726027E+00
   4.40000000E-01 -9.06535969E-02 -2.00559312E+00
   4.50000000E-01 -1.10640838E-01 -1.99145791E+00
   4.60000000E-01 -1.30475088E-01 -1.97502215E+00
   4.70000000E-01 -1.50134140E-01 -1.95644397E+00
   4.80000000E-01 -1.69597325E-01 -1.93587277E+00
   4.90000000E-01 -1.88845424E-01 -1.91344972E+00
   5.00000000E-01 -2.07860592E-01 -1.88930828E+00
   5.10000000E-01 -2.26626283E-01 -1.86357467E+00
   5.20000000E-01 -2.45127177E-01 -1.83636828E+00
   5.30000000E-01 -2.63349116E-01 -1.80780210E+00
   5.40000000E-01 -2.81279043E-01 -1.77798305E+00
   5.50000000E-01 -2.98904939E-01 -1.74701231E+00
   5.60000000E-01 -3.16215770E-01 -1.71498566E+00
   5.70000000E-01 -3.33201435E-01 -1.68199377E+00
   5.80000000E-01 -3.49852715E-01 -1.64812245E+00
   5.90000000E-01 -3.66161224E-01 -1.61345291E+00
   6.00000000E-01 -3.82119369E-01 -1.57806202E+00
   6.10000000E-01 -3.97720303E-01 -1.54202250E+00
   6.20000000E-01 -4.12957886E-01 -1.50540314E+00
   6.30000000E-01 -4.27826650E-01 -1.46826902E+00
   6.40000000E-01 -4.42321756E-01 -1.43068165E+00
   6.50000000E-01 -4.56438967E-01 -1.39269921E+00
   6.60000000E-01 -4.70174607E-01 -1.35437662E+00
   6.70000000E-01 -4.83525539E-01 -1.31576580E+00
   6.80000000E-01 -4.96489126E-01 -1.27691575E+00
   6.90000000E-01 -5.09063211E-01 -1.23787271E+00
   7.00000000E-01 -5.21246083E-01 -1.19868031E+00
   7.10000000E-01 -5.33036456E-01 -1.15937966E+00
   7.20000000E-01 -5.44433444E-01 -1.12000951E+00
   7.30000000E-01 -5.55436537E-01 -1.08060633E+00
   7.40000000E-01 -5.66045576E-01 -1.04120446E+00
   7.50000000E-01 -5.76260738E-01 -1.00183617E+00
   7.60000000E-01 -5.86082512E-01 -9.62531772E-01
   7.70000000E-01 -5.95511682E-01 -9.23319757E-01
   7.80000000E-01 -6.04549305E-01 -8.84226834E-01
   7.90000000E-01 -6.13196699E-01 -8.45278016E-01
   8.00000000E-01 -6.21455424E-01 -8.06496747E-01
   8.10000000E-01 -6.29327265E-01 -7.67904946E-01
   8.20000000E-01 -6.36814222E-01 -7.29523086E-01
   8.30000000E-01 -6.43918491E-01 -6.91370274E-01
   8.40000000E-01 -6.50642451E-01 -6.53464316E-01
   8.50000000E-01 -6.56988655E-01 -6.15821791E-01
   8.60000000E-01 -6.62959816E-01 -5.78458091E-01
   8.70000000E-01 -6.68558794E-01 -5.41387500E-01
   8.80000000E-01 -6.73788588E-01 -5.04623264E-01
   8.90000000E-01 -6.78652322E-01 -4.68177617E-01
   9.00000000E-01 -6.83153240E-01 -4.32061841E-01
   9.10000000E-01 -6.87294693E-01 -3.96286331E-01
   9.20000000E-01 -6.91080132E-01 -3.60860625E-01
   9.30000000E-01 -6.94513101E-01 -3.25793467E-01
   9.40000000E-01 -6.97597224E-01 -2.91092840E-01
   9.50000000E-01 -7.00336203E-01 -2.56766002E-01
   9.60000000E-01 -7.02733812E-01 -2.22819549E-01
   9.70000000E-01 -7.04793882E-01 -1.89259435E-01
   9.80000000E-01 -7.06520306E-01 -1.56090996E-01
   9.90000000E-01 -7.07917024E-01 -1.23319015E-01
   1.00000000E+00 -7.08988022E-01 -9.09477438E-02
   1.01000000E+00 -7.09737327E-01 -5.89809145E-02
   1.02000000E+00 -7.10168999E-01 -2.74218014E-02
   1.03000000E+00 -7.10287131E-01  3.72677070E-03
   1.04000000E+00 -7.10095840E-01  3.44624053E-02
   1.05000000E+00 -7.09599267E-01  6.47830541E-02
   1.06000000E+00 -7.08801568E-01  9.46870762E-02
   1.07000000E+00 -7.07706918E-01  1.24173154E-01
   1.08000000E+00 -7.06319502E-01  1.53240294E-01
   1.09000000E+00 -7.04643511E-01  1.81887795E-01
   1.10000000E+00 -7.02683146E-01  2.10115234E-01
   1.11000000E+00 -7.00442607E-01  2.37922443E-01
   1.12000000E+00 -6.97926098E-01  2.65309494E-01
   1.13000000E+00 -6.95137817E-01  2.92276681E-01
   1.14000000E+00 -6.92081962E-01  3.18824499E-01
   1.15000000E+00 -6.88762723E-01  3.44953632E-01
   1.16000000E+00 -6.85184282E-01  3.70664937E-01
   1.17000000E+00 -6.81350813E-01  3.95959424E-01
   1.18000000E+00 -6.77266479E-01  4.20838258E-01
   1.19000000E+00 -6.72935429E-01  4.45302729E-01
   1.20000000E+00 -6.68361801E-01  4.69354246E-01
   1.21000000E+00 -6.63549716E-01  4.92994330E-01
   1.22000000E+00 -6.58503280E-01  5.16224597E-01
   1.23000000E+00 -6.53226584E-01  5.39046752E-01
   1.24000000E+00 -6.47723700E-01  5.61462575E-01
   1.25000000E+00 -6.41998681E-01  5.83473914E-01
   1.26000000E+00 -6.36055563E-01  6.05082680E-01
   1.27000000E+00 -6.29898363E-01  6.26290830E-01
   1.28000000E+00 -6.23531076E-01  6.47100368E-01
   1.29000000E+00 -6.16957677E-01  6.67513334E-01
   1.30000000E+00 -6.10182124E-01  6.87531799E-01
   1.31000000E+00 -6.03208350E-01  7.07157852E-01
   1.32000000E+00 -5.96040268E-01  7.26393605E-01
   1.33000000E+00 -5.88681771E-01  7.45241182E-01
   1.34000000E+00 -5.81136731E-01  7.63702709E-01
   1.35000000E+00 -5.73408997E-01  7.81780317E-01
   1.36000000E+00 -5.65502397E-01  7.99476135E-01
   1.37000000E+00 -5.57420740E-01  8.16792283E-01
   1.38000000E+00 -5.49167810E-01  8.33730871E-01
   1.39000000E+00 -5.40747374E-01  8.50293996E-01
   1.40000000E+00 -5.32163175E-01  8.66483737E-01
   1.41000000E+00 -5.23418937E-01  8.82302152E-01
   1.42000000E+00 -5.14518363E-01  8.97751277E-01
   1.43000000E+00 -5.05465136E-01  9.12833122E-01
   1.44000000E+00 -4.96262918E-01  9.27549667E-01
   1.45000000E+00 -4.86915353E-01  9.41902865E-01
   1.46000000E+00 -4.77426066E-01  9.55894636E-01
   1.47000000E+00 -4.67798659E-01  9.69526868E-01
   1.48000000E+00 -4.58036720E-01  9.82801414E-01
   1.49000000E+00 -4.48143817E-01  9.95720090E-01
   1.50000000E+00 -4.38123499E-01  1.00828467E+00
   1.51000000E+00 -4.27979298E-01  1.02049691E+00
   1.52000000E+00 -4.17714730E-01  1.03235850E+00
   1.53000000E+00 -4.07333291E-01  1.04387111E+00
   1.54000000E+00 -3.96838465E-01  1.05503636E+00
   1.55000000E+00 -3.86233717E-01  1.06585583E+00
   1.56000000E+00 -3.75522496E-01  1.07633108E+00
   1.57000000E+00 -3.64708238E-01  1.08646361E+00
   1.58000000E+00 -3.53794361E-01  1.09625488E+00
   1.59000000E+00 -3.42784273E-01  1.10570632E+00
   1.60000000E+00 -3.31681363E-01  1.11481931E+00
   1.61000000E+00 -3.20489010E-01  1.12359521E+00
   1.62000000E+00 -3.09210578E-01  1.13203532E+00
   1.63000000E+00 -2.97849419E-01  1.14014091E+00
   1.64000000E+00 -2.86408871E-01  1.14791323E+00
   1.65000000E+00 -2.74892261E-01  1.15535346E+00
   1.66000000E+00 -2.63302905E-01  1.16246278E+00
   1.67000000E+00 -2.51644105E-01  1.16924231E+00
   1.68000000E+00 -2.39919154E-01  1.17569316E+00
   1.69000000E+00 -2.28131334E-01  1.18181637E+00
   1.70000000E+00 -2.16283915E-01  1.18761300E+00
   1.71000000E+00 -2.04380159E-01  1.19308404E+00
   1.72000000E+00 -1.92423316E-01  1.19823048E+00
   1.73000000E+00 -1.80416629E-01  1.20305325E+00
   1.74000000E+00 -1.68363327E-01  1.20755328E+00
   1.75000000E+00 -1.56266636E-01  1.21173147E+00
   1.76000000E+00 -1.44129768E-01  1.21558870E+00
   1.77000000E+00 -1.31955929E-01  1.21912582E+00
   1.78000000E+00 -1.19748316E-01  1.22234367E+00
   1.79000000E+00 -1.07510117E-01  1.22524307E+00
   1.80000000E+00 -9.52445131E-02  1.22782481E+00
   1.81000000E+00 -8.29546769E-02  1.23008968E+00
   1.82000000E+00 -7.06437731E-02  1.23203846E+00
   1.83000000E+00 -5.83149588E-02  1.23367190E+00
   1.84000000E+00 -4.59713837E-02  1.23499076E+00
   1.85000000E+00 -3.36161898E-02  1.23599577E+00
   1.86000000E+00 -2.12525120E-02  1.23668768E+00
   1.87000000E+00 -8.88347742E-03  1.23706722E+00
   1.88000000E+00  3.48779368E-03  1.23713512E+00
   1.89000000E+00  1.58581886E-02  1.23689210E+00
   1.90000000E+00  2.82246017E-02  1.23633889E+00
   1.91000000E+00  4.05839349E-02  1.23547623E+00
   1.92000000E+00  5.29330973E-02  1.23430485E+00
   1.93000000E+00  6.52690053E-02  1.23282549E+00
   1.94000000E+00  7.75885831E-02  1.23103891E+00
   1.95000000E+00  8.98887619E-02  1.22894585E+00
   1.96000000E+00  1.02166481E-01  1.22654710E+00
   1.97000000E+00  1.14418687E-01  1.22384343E+00
   1.98000000E+00  1.26642336E-01  1.22083564E+00
   1.99000000E+00  1.38834389E-01  1.21752456E+00
   2.00000000E+00  1.50991819E-01  1.21391101E+00
   2.01000000E+00  1.63111604E-01  1.20999585E+00
   2.02000000E+00  1.75190733E-01  1.20577996E+00
   2.03000000E+00  1.87226204E-01  1.20126423E+00
   2.04000000E+00  1.99215022E-01  1.19644960E+00
   2.05000000E+00  2.11154203E-01  1.19133701E+00
   2.06000000E+00  2.23040772E-01  1.18592745E+00
   2.07000000E+00  2.34871765E-01  1.18022194E+00
   2.08000000E+00  2.46644228E-01  1.17422149E+00
   2.09000000E+00  2.58355293E-01  1.16795067E+00
   2.10000000E+00  2.70002430E-01  1.16143659E+00
   2.11000000E+00  2.81583230E-01  1.15468415E+00
   2.12000000E+00  2.93095335E-01  1.14769818E+00
   2.13000000E+00  3.04536432E-01  1.14048346E+00
   2.14000000E+00  3.15904257E-01  1.13304469E+00
   2.15000000E+00  3.27196594E-01  1.12538652E+00
   2.16000000E+00  3.38411271E-01  1.11751352E+00
   2.17000000E+00  3.49546164E-01  1.10943023E+00
   2.18000000E+00  3.60599190E-01  1.10114110E+00
   2.19000000E+00  3.71568314E-01  1.09265053E+00
   2.20000000E+00  3.82451544E-01  1.08396287E+00
   2.21000000E+00  3.93246929E-01  1.07508238E+00
   2.22000000E+00  4.03952563E-01  1.06601330E+00
   2.23000000E+00  4.14566580E-01  1.05675980E+00
   2.24000000E+00  4.25087158E-01  1.04732598E+00
   2.25000000E+00  4.35512512E-01  1.03771591E+00
   2.26000000E+00  4.45840901E-01  1.02793357E+00
   2.27000000E+00  4.56070623E-01  1.01798293E+00
   2.28000000E+00  4.66200012E-01  1.00786787E+00
   2.29000000E+00  4.76227445E-01  9.97592247E-01
   2.30000000E+00  4.86151334E-01  9.87159845E-01
   2.31000000E+00  4.95970132E-01  9.76574410E-01
   2.32000000E+00  5.05682325E-01  9.65839636E-01
   2.33000000E+00  5.15286439E-01  9.54959171E-01
   2.34000000E+00  5.24781035E-01  9.43936611E-01
   2.35000000E+00  5.34164709E-01  9.32775512E-01
   2.36000000E+00  5.43436095E-01  9.21479379E-01
   2.37000000E+00  5.52593858E-01  9.10051677E-01
   2.38000000E+00  5.61636701E-01  8.98495824E-01
   2.39000000E+00  5.70563359E-01  8.86815196E-01
   2.40000000E+00  5.79372600E-01  8.75013127E-01
   2.41000000E+00  5.88063227E-01  8.63092911E-01
   2.42000000E+00  5.96634075E-01  8.51057798E-01
   2.43000000E+00  6.05084011E-01  8.38911004E-01
   2.44000000E+00  6.13411934E-01  8.26655702E-01
   2.45000000E+00  6.21616774E-01  8.14295028E-01
   2.46000000E+00  6.29697493E-01  8.01832082E-01
   2.47000000E+00  6.37653085E-01  7.89269927E-01
   2.48000000E+00  6.45482571E-01  7.76611590E-01
   2.49000000E+00  6.53185006E-01  7.63860062E-01
   2.50000000E+00  6.60759472E-01  7.51018303E-01
   2.51000000E+00  6.68205081E-01  7.38089238E-01
   2.52000000E+00  6.75520975E-01  7.25075758E-01
   2.53000000E+00  6.82706324E-01  7.11980723E-01
   2.54000000E+00  6.89760327E-01  6.98806962E-01
   2.55000000E+00  6.96682211E-01  6.85557274E-01
   2.56000000E+00  7.03471229E-01  6.72234425E-01
   2.57000000E+00  7.10126664E-01  6.58841156E-01
   2.58000000E+00  7.16647826E-01  6.45380176E-01
   2.59000000E+00  7.23034051E-01  6.31854167E-01
   2.60000000E+00  7.29284702E-01  6.18265781E-01
   2.61000000E+00  7.35399168E-01  6.04617648E-01
   2.62000000E+00  7.41376864E-01  5.90912367E-01
   2.63000000E+00  7.47217233E-01  5.77152513E-01
   2.64000000E+00  7.52919741E-01  5.63340636E-01
   2.65000000E+00  7.58483881E-01  5.49479260E-01
   2.66000000E+00  7.63909170E-01  5.35570887E-01
   2.67000000E+00  7.69195150E-01  5.21617991E-01
   2.68000000E+00  7.74341389E-01  5.07623027E-01
   2.69000000E+00  7.79347479E-01  4.93588424E-01
   2.70000000E+00  7.84213034E-01  4.79516592E-01
   2.71000000E+00  7.88937694E-01  4.65409916E-01
   2.72000000E+00  7.93521124E-01  4.51270760E-01
   2.73000000E+00  7.97963009E-01  4.37101467E-01
   2.74000000E+00  8.02263060E-01  4.22904361E-01
   2.75000000E+00  8.06421011E-01  4.08681743E-01
   2.76000000E+00  8.10436618E-01  3.94435894E-01
   2.77000000E+00  8.14309659E-01  3.80169078E-01
   2.78000000E+00  8.18039937E-01  3.65883537E-01
   2.79000000E+00  8.21627275E-01  3.51581494E-01
   2.80000000E+00  8.25071519E-01  3.37265156E-01
   2.81000000E+00  8.28372538E-01  3.22936710E-01
   2.82000000E+00  8.31530220E-01  3.08598324E-01
   2.83000000E+00  8.34544478E-01  2.94252149E-01
   2.84000000E+00  8.37415244E-01  2.79900320E-01
   2.85000000E+00  8.40142473E-01  2.65544952E-01
   2.86000000E+00  8.42726139E-01  2.51188145E-01
   2.87000000E+00  8.45166238E-01  2.36831980E-01
   2.88000000E+00  8.47462787E-01  2.22478525E-01
   2.89000000E+00  8.49615824E-01  2.08129828E-01
   2.90000000E+00  8.51625406E-01  1.93787923E-01
   2.91000000E+00  8.53491612E-01  1.79454827E-01
   2.92000000E+00  8.55214539E-01  1.65132542E-01
   2.93000000E+00  8.56794306E-01  1.50823054E-01
   2.94000000E+00  8.58231049E-01  1.36528334E-01
   2.95000000E+00  8.59524928E-01  1.22250338E-01
   2.96000000E+00  8.60676118E-01  1.07991005E-01
   2.97000000E+00  8.61684817E-01  9.37522588E-02
   2.98000000E+00  8.62551238E-01  7.95360121E-02
   2.99000000E+00  8.63275618E-01  6.53441590E-02
   3.00000000E+00  8.63858209E-01  5.11785817E-02
   3.01000000E+00  8.64299284E-01  3.70411453E-02
   3.02000000E+00  8.64599132E-01  2.29337019E-02
   3.03000000E+00  8.64758064E-01  8.85809088E-03
   3.04000000E+00  8.64776406E-01 -5.18386721E-03
   3.05000000E+00  8.64654505E-01 -1.91903618E-02
   3.06000000E+00  8.64392723E-01 -3.31595982E-02
   3.07000000E+00  8.63991443E-01 -4.70897966E-02
   3.08000000E+00  8.63451063E-01 -6.09791884E-02
   3.09000000E+00  8.62772001E-01 -7.48260226E-02
   3.10000000E+00  8.61954690E-01 -8.86285579E-02
   3.11000000E+00  8.60999583E-01 -1.02385071E-01
   3.12000000E+00  8.59907148E-01 -1.16093851E-01
   3.13000000E+00  8.58677871E-01 -1.29753201E-01
   3.14000000E+00  8.57312254E-01 -1.43361435E-01
   3.15000000E+00  8.55810818E-01 -1.56916888E-01
   3.16000000E+00  8.54174098E-01 -1.70417901E-01
   3.17000000E+00  8.52402647E-01 -1.83862832E-01
   3.18000000E+00  8.50497034E-01 -1.97250056E-01
   3.19000000E+00  8.48457844E-01 -2.10577956E-01
   3.20000000E+00  8.46285678E-01 -2.23844933E-01
   3.21000000E+00  8.43981153E-01 -2.37049399E-01
   3.22000000E+00  8.41544903E-01 -2.50189783E-01
   3.23000000E+00  8.38977577E-01 -2.63264525E-01
   3.24000000E+00  8.36279837E-01 -2.76272079E-01
   3.25000000E+00  8.33452364E-01 -2.89210915E-01
   3.26000000E+00  8.30495853E-01 -3.02079518E-01
   3.27000000E+00  8.27411013E-01 -3.14876384E-01
   3.28000000E+00  8.24198569E-01 -3.27600022E-01
   3.29000000E+00  8.20859261E-01 -3.40248957E-01
   3.30000000E+00  8.17393844E-01 -3.52821732E-01
   3.31000000E+00  8.13803085E-01 -3.65316900E-01
   3.32000000E+00  8.10087769E-01 -3.77733028E-01
   3.33000000E+00  8.06248693E-01 -3.90068696E-01
   3.34000000E+00  8.02286668E-01 -4.02322501E-01
   3.35000000E+00  7.98202521E-01 -4.14493056E-01
   3.36000000E+00  7.93997089E-01 -4.26578987E-01
   3.37000000E+00  7.89671227E-01 -4.38578931E-01
   3.38000000E+00  7.85225802E-01 -4.50491542E-01
   3.39000000E+00  7.80661692E-01 -4.62315490E-01
   3.40000000E+00  7.75979792E-01 -4.74049460E-01
   3.41000000E+00  7.71181007E-01 -4.85692148E-01
   3.42000000E+00  7.66266258E-01 -4.97242268E-01
   3.43000000E+00  7.61236475E-01 -5.08698548E-01
   3.44000000E+00  7.56092604E-01 -5.20059732E-01
   3.45000000E+00  7.50835601E-01 -5.31324579E-01
   3.46000000E+00  7.45466437E-01 -5.42491859E-01
   3.47000000E+00  7.39986093E-01 -5.53560360E-01
   3.48000000E+00  7.34395563E-01 -5.64528888E-01
   3.49000000E+00  7.28695853E-01 -5.75396261E-01
   3.50000000E+00  7.22887979E-01 -5.86161315E-01
   3.51000000E+00  7.16972971E-01 -5.96822898E-01
   3.52000000E+00  7.10951870E-01 -6.07379873E-01
   3.53000000E+00  7.04825726E-01 -6.17831123E-01
   3.54000000E+00  6.98595603E-01 -6.28175545E-01
   3.55000000E+00  6.92262575E-01 -6.38412049E-01
   3.56000000E+00  6.85827726E-01 -6.48539563E-01
   3.57000000E+00  6.79292151E-01 -6.58557030E-01
   3.58000000E+00  6.72656955E-01 -6.68463412E-01
   3.59000000E+00  6.65923256E-01 -6.78257681E-01
   3.60000000E+00  6.59092179E-01 -6.87938831E-01
   3.61000000E+00  6.52164860E-01 -6.97505869E-01
   3.62000000E+00  6.45142445E-01 -7.06957818E-01
   3.63000000E+00  6.38026090E-01 -7.16293718E-01
   3.64000000E+00  6.30816961E-01 -7.25512627E-01
   3.65000000E+00  6.23516231E-01 -7.34613617E-01
   3.66000000E+00  6.16125084E-01 -7.43595776E-01
   3.67000000E+00  6.08644714E-01 -7.52458209E-01
   3.68000000E+00  6.01076322E-01 -7.61200041E-01
   3.69000000E+00  5.93421118E-01 -7.69820409E-01
   3.70000000E+00  5.85680322E-01 -7.78318469E-01
   3.71000000E+00  5.77855160E-01 -7.86693391E-01
   3.72000000E+00  5.69946867E-01 -7.94944365E-01
   3.73000000E+00  5.61956688E-01 -8.03070600E-01
   3.74000000E+00  5.53885874E-01 -8.11071314E-01
   3.75000000E+00  5.45735683E-01 -8.18945749E-01
   3.76000000E+00  5.37507382E-01 -8.26693161E-01
   3.77000000E+00  5.29202245E-01 -8.34312822E-01
   3.78000000E+00  5.20821554E-01 -8.41804022E-01
   3.79000000E+00  5.12366595E-01 -8.49166071E-01
   3.80000000E+00  5.03838665E-01 -8.56398294E-01
   3.81000000E+00  4.95239064E-01 -8.63500031E-01
   3.82000000E+00  4.86569102E-01 -8.70470643E-01
   3.83000000E+00  4.77830091E-01 -8.77309505E-01
   3.84000000E+00  4.69023353E-01 -8.84016012E-01
   3.85000000E+00  4.60150214E-01 -8.90589576E-01
   3.86000000E+00  4.51212006E-01 -8.97029624E-01
   3.87000000E+00  4.42210068E-01 -9.03335604E-01
   3.88000000E+00  4.33145743E-01 -9.09506979E-01
   3.89000000E+00  4.24020379E-01 -9.15543227E-01
   3.90000000E+00  4.14835330E-01 -9.21443848E-01
