 # Radial wave functions calculated by RADIAL.
 # **** Schrodinger Eq. Numerical potential.
 #      Input potential file: potential_2A1.dat   
 #      Free state: E= 2.719449E+00, L=   0  (EPS= 1.0E-15)
 #        Inner phase shift= 2.319147793099324E+00
 #      Coulomb phase shift= 2.185902337806395E-01  (ETA=-4.288040E-01)
 #      Matching radius: RAD(  829)= 8.279999999999999E+00
 #       R              P(R)            Q(R)
   0.00000000E+00  0.00000000E+00  0.00000000E+00
   1.00000000E-02  8.86038034E-02  8.32464492E+00
   2.00000000E-02  1.66769306E-01  7.32178336E+00
   3.00000000E-02  2.35296406E-01  6.39601116E+00
   4.00000000E-02  2.94927859E-01  5.54174816E+00
   5.00000000E-02  3.46352104E-01  4.75371641E+00
   6.00000000E-02  3.90206416E-01  4.02696444E+00
   7.00000000E-02  4.27080234E-01  3.35687606E+00
   8.00000000E-02  4.57518507E-01  2.73916932E+00
   9.00000000E-02  4.82025003E-01  2.16988798E+00
   1.00000000E-01  5.01065505E-01  1.64538805E+00
   1.10000000E-01  5.15070844E-01  1.16232119E+00
   1.20000000E-01  5.24439772E-01  7.17616009E-01
   1.30000000E-01  5.29541631E-01  3.08458815E-01
   1.40000000E-01  5.30718832E-01 -6.77259160E-02
   1.50000000E-01  5.28289144E-01 -4.13294656E-01
   1.60000000E-01  5.22547786E-01 -7.30403369E-01
   1.70000000E-01  5.13769348E-01 -1.02102493E+00
   1.80000000E-01  5.02209540E-01 -1.28696564E+00
   1.90000000E-01  4.88106773E-01 -1.52988048E+00
   2.00000000E-01  4.71683610E-01 -1.75128728E+00
   2.10000000E-01  4.53148063E-01 -1.95257975E+00
   2.20000000E-01  4.32694780E-01 -2.13503927E+00
   2.30000000E-01  4.10506111E-01 -2.29984573E+00
   2.40000000E-01  3.86753072E-01 -2.44808737E+00
   2.50000000E-01  3.61596220E-01 -2.58076961E+00
   2.60000000E-01  3.35186435E-01 -2.69882307E+00
   2.70000000E-01  3.07665637E-01 -2.80311078E+00
   2.80000000E-01  2.79167426E-01 -2.89443462E+00
   2.90000000E-01  2.49817664E-01 -2.97354119E+00
   3.00000000E-01  2.19735000E-01 -3.04112698E+00
   3.10000000E-01  1.89031352E-01 -3.09784307E+00
   3.20000000E-01  1.57812334E-01 -3.14429928E+00
   3.30000000E-01  1.26177655E-01 -3.18106790E+00
   3.40000000E-01  9.42214708E-02 -3.20868708E+00
   3.50000000E-01  6.20327181E-02 -3.22766375E+00
   3.60000000E-01  2.96954066E-02 -3.23847633E+00
   3.70000000E-01 -2.71110503E-03 -3.24157710E+00
   3.80000000E-01 -3.51118594E-02 -3.23739436E+00
   3.90000000E-01 -6.74360701E-02 -3.22633429E+00
   4.00000000E-01 -9.96169090E-02 -3.20878271E+00
   4.10000000E-01 -1.31591311E-01 -3.18510658E+00
   4.20000000E-01 -1.63299792E-01 -3.15565538E+00
   4.30000000E-01 -1.94686281E-01 -3.12076236E+00
   4.40000000E-01 -2.25697962E-01 -3.08074563E+00
   4.50000000E-01 -2.56285129E-01 -3.03590916E+00
   4.60000000E-01 -2.86401050E-01 -2.98654371E+00
   4.70000000E-01 -3.16001836E-01 -2.93292761E+00
   4.80000000E-01 -3.45046324E-01 -2.87532753E+00
   4.90000000E-01 -3.73495960E-01 -2.81399913E+00
   5.00000000E-01 -4.01314697E-01 -2.74918765E+00
   5.10000000E-01 -4.28468889E-01 -2.68112854E+00
   5.20000000E-01 -4.54927197E-01 -2.61004790E+00
   5.30000000E-01 -4.80660500E-01 -2.53616295E+00
   5.40000000E-01 -5.05641805E-01 -2.45968253E+00
   5.50000000E-01 -5.29846169E-01 -2.38080737E+00
   5.60000000E-01 -5.53250615E-01 -2.29973061E+00
   5.70000000E-01 -5.75834062E-01 -2.21663803E+00
   5.80000000E-01 -5.97577253E-01 -2.13170839E+00
   5.90000000E-01 -6.18462681E-01 -2.04511372E+00
   6.00000000E-01 -6.38474530E-01 -1.95701963E+00
   6.10000000E-01 -6.57598607E-01 -1.86758554E+00
   6.20000000E-01 -6.75822286E-01 -1.77696491E+00
   6.30000000E-01 -6.93134444E-01 -1.68530551E+00
   6.40000000E-01 -7.09525408E-01 -1.59274958E+00
   6.50000000E-01 -7.24986904E-01 -1.49943410E+00
   6.60000000E-01 -7.39511999E-01 -1.40549092E+00
   6.70000000E-01 -7.53095054E-01 -1.31104696E+00
   6.80000000E-01 -7.65731676E-01 -1.21622441E+00
   6.90000000E-01 -7.77418673E-01 -1.12114089E+00
   7.00000000E-01 -7.88154002E-01 -1.02590957E+00
   7.10000000E-01 -7.97936735E-01 -9.30639364E-01
   7.20000000E-01 -8.06767009E-01 -8.35435066E-01
   7.30000000E-01 -8.14645992E-01 -7.40397462E-01
   7.40000000E-01 -8.21575838E-01 -6.45623484E-01
   7.50000000E-01 -8.27559652E-01 -5.51206339E-01
   7.60000000E-01 -8.32601453E-01 -4.57235618E-01
   7.70000000E-01 -8.36706140E-01 -3.63797435E-01
   7.80000000E-01 -8.39879453E-01 -2.70974518E-01
   7.90000000E-01 -8.42127946E-01 -1.78846298E-01
   8.00000000E-01 -8.43458949E-01 -8.74890636E-02
   8.10000000E-01 -8.43880542E-01  3.02396954E-03
   8.20000000E-01 -8.43401518E-01  9.26225735E-02
   8.30000000E-01 -8.42031363E-01  1.81239399E-01
   8.40000000E-01 -8.39780218E-01  2.68809892E-01
   8.50000000E-01 -8.36658859E-01  3.55272199E-01
   8.60000000E-01 -8.32678666E-01  4.40567119E-01
   8.70000000E-01 -8.27851597E-01  5.24637995E-01
   8.80000000E-01 -8.22190167E-01  6.07430627E-01
   8.90000000E-01 -8.15707419E-01  6.88893236E-01
   9.00000000E-01 -8.08416901E-01  7.68976384E-01
   9.10000000E-01 -8.00332647E-01  8.47632890E-01
   9.20000000E-01 -7.91469149E-01  9.24817785E-01
   9.30000000E-01 -7.81841339E-01  1.00048823E+00
   9.40000000E-01 -7.71464568E-01  1.07460349E+00
   9.50000000E-01 -7.60354583E-01  1.14712483E+00
   9.60000000E-01 -7.48527507E-01  1.21801552E+00
   9.70000000E-01 -7.35999824E-01  1.28724070E+00
   9.80000000E-01 -7.22788355E-01  1.35476744E+00
   9.90000000E-01 -7.08910241E-01  1.42056459E+00
   1.00000000E+00 -6.94382927E-01  1.48460279E+00
   1.01000000E+00 -6.79224141E-01  1.54685442E+00
   1.02000000E+00 -6.63451880E-01  1.60729354E+00
   1.03000000E+00 -6.47084393E-01  1.66589586E+00
   1.04000000E+00 -6.30140161E-01  1.72263871E+00
   1.05000000E+00 -6.12637887E-01  1.77750096E+00
   1.06000000E+00 -5.94596476E-01  1.83046306E+00
   1.07000000E+00 -5.76035020E-01  1.88150694E+00
   1.08000000E+00 -5.56972787E-01  1.93061599E+00
   1.09000000E+00 -5.37429201E-01  1.97777507E+00
   1.10000000E+00 -5.17423831E-01  2.02297041E+00
   1.11000000E+00 -4.96976379E-01  2.06618967E+00
   1.12000000E+00 -4.76106662E-01  2.10742180E+00
   1.13000000E+00 -4.54834600E-01  2.14665713E+00
   1.14000000E+00 -4.33180204E-01  2.18388726E+00
   1.15000000E+00 -4.11163562E-01  2.21910508E+00
   1.16000000E+00 -3.88804829E-01  2.25230472E+00
   1.17000000E+00 -3.66124211E-01  2.28348155E+00
   1.18000000E+00 -3.43141953E-01  2.31263215E+00
   1.19000000E+00 -3.19878329E-01  2.33975429E+00
   1.20000000E+00 -2.96353632E-01  2.36484689E+00
   1.21000000E+00 -2.72588156E-01  2.38791004E+00
   1.22000000E+00 -2.48602192E-01  2.40894495E+00
   1.23000000E+00 -2.24416011E-01  2.42795395E+00
   1.24000000E+00 -2.00049855E-01  2.44494046E+00
   1.25000000E+00 -1.75523928E-01  2.45990899E+00
   1.26000000E+00 -1.50858383E-01  2.47286511E+00
   1.27000000E+00 -1.26073312E-01  2.48381542E+00
   1.28000000E+00 -1.01188735E-01  2.49276758E+00
   1.29000000E+00 -7.62245922E-02  2.49973026E+00
   1.30000000E+00 -5.12007297E-02  2.50471314E+00
   1.31000000E+00 -2.61368934E-02  2.50772686E+00
   1.32000000E+00 -1.05271750E-03  2.50878309E+00
   1.33000000E+00  2.40322854E-02  2.50789443E+00
   1.34000000E+00  4.90987332E-02  2.50507444E+00
   1.35000000E+00  7.41273845E-02  2.50033761E+00
   1.36000000E+00  9.90991473E-02  2.49369937E+00
   1.37000000E+00  1.23995088E-01  2.48517607E+00
   1.38000000E+00  1.48796443E-01  2.47478495E+00
   1.39000000E+00  1.73484622E-01  2.46254415E+00
   1.40000000E+00  1.98041223E-01  2.44847267E+00
   1.41000000E+00  2.22448039E-01  2.43259040E+00
   1.42000000E+00  2.46687064E-01  2.41491807E+00
   1.43000000E+00  2.70740505E-01  2.39547726E+00
   1.44000000E+00  2.94590789E-01  2.37429039E+00
   1.45000000E+00  3.18220570E-01  2.35138069E+00
   1.46000000E+00  3.41612740E-01  2.32677219E+00
   1.47000000E+00  3.64750434E-01  2.30048974E+00
   1.48000000E+00  3.87617040E-01  2.27255894E+00
   1.49000000E+00  4.10196207E-01  2.24300620E+00
   1.50000000E+00  4.32471848E-01  2.21185867E+00
   1.51000000E+00  4.54428157E-01  2.17914424E+00
   1.52000000E+00  4.76049606E-01  2.14489155E+00
   1.53000000E+00  4.97320958E-01  2.10912996E+00
   1.54000000E+00  5.18227275E-01  2.07188954E+00
   1.55000000E+00  5.38753922E-01  2.03320103E+00
   1.56000000E+00  5.58886574E-01  1.99309591E+00
   1.57000000E+00  5.78611225E-01  1.95160626E+00
   1.58000000E+00  5.97914193E-01  1.90876487E+00
   1.59000000E+00  6.16782128E-01  1.86460514E+00
   1.60000000E+00  6.35202015E-01  1.81916112E+00
   1.61000000E+00  6.53161185E-01  1.77246745E+00
   1.62000000E+00  6.70647316E-01  1.72455938E+00
   1.63000000E+00  6.87648444E-01  1.67547274E+00
   1.64000000E+00  7.04152964E-01  1.62524393E+00
   1.65000000E+00  7.20149638E-01  1.57390988E+00
   1.66000000E+00  7.35627602E-01  1.52150808E+00
   1.67000000E+00  7.50576367E-01  1.46807652E+00
   1.68000000E+00  7.64985828E-01  1.41365371E+00
   1.69000000E+00  7.78846267E-01  1.35827862E+00
   1.70000000E+00  7.92148358E-01  1.30199071E+00
   1.71000000E+00  8.04883171E-01  1.24482987E+00
   1.72000000E+00  8.17042180E-01  1.18683643E+00
   1.73000000E+00  8.28617260E-01  1.12805112E+00
   1.74000000E+00  8.39600700E-01  1.06851508E+00
   1.75000000E+00  8.49985198E-01  1.00826981E+00
   1.76000000E+00  8.59763871E-01  9.47357172E-01
   1.77000000E+00  8.68930257E-01  8.85819353E-01
   1.78000000E+00  8.77478316E-01  8.23698861E-01
   1.79000000E+00  8.85402435E-01  7.61038497E-01
   1.80000000E+00  8.92697430E-01  6.97881331E-01
   1.81000000E+00  8.99358550E-01  6.34270682E-01
   1.82000000E+00  9.05381477E-01  5.70250107E-01
   1.83000000E+00  9.10762331E-01  5.05863363E-01
   1.84000000E+00  9.15497670E-01  4.41154397E-01
   1.85000000E+00  9.19584492E-01  3.76167315E-01
   1.86000000E+00  9.23020237E-01  3.10946369E-01
   1.87000000E+00  9.25802788E-01  2.45535921E-01
   1.88000000E+00  9.27930472E-01  1.79980433E-01
   1.89000000E+00  9.29402061E-01  1.14324434E-01
   1.90000000E+00  9.30216774E-01  4.86125016E-02
   1.91000000E+00  9.30374274E-01 -1.71107643E-02
   1.92000000E+00  9.29874670E-01 -8.28007699E-02
   1.93000000E+00  9.28718518E-01 -1.48412943E-01
   1.94000000E+00  9.26906819E-01 -2.13902760E-01
   1.95000000E+00  9.24441019E-01 -2.79225781E-01
   1.96000000E+00  9.21323007E-01 -3.44337661E-01
   1.97000000E+00  9.17555117E-01 -4.09194185E-01
   1.98000000E+00  9.13140121E-01 -4.73751288E-01
   1.99000000E+00  9.08081235E-01 -5.37965084E-01
   2.00000000E+00  9.02382110E-01 -6.01791886E-01
   2.01000000E+00  8.96046832E-01 -6.65188239E-01
   2.02000000E+00  8.89079924E-01 -7.28110942E-01
   2.03000000E+00  8.81486335E-01 -7.90517072E-01
   2.04000000E+00  8.73271446E-01 -8.52364020E-01
   2.05000000E+00  8.64441060E-01 -9.13609503E-01
   2.06000000E+00  8.55001401E-01 -9.74211597E-01
   2.07000000E+00  8.44959111E-01 -1.03412876E+00
   2.08000000E+00  8.34321246E-01 -1.09331994E+00
   2.09000000E+00  8.23095523E-01 -1.15166818E+00
   2.10000000E+00  8.11291067E-01 -1.20906083E+00
   2.11000000E+00  7.98917604E-01 -1.26546427E+00
   2.12000000E+00  7.85985189E-01 -1.32084563E+00
   2.13000000E+00  7.72504205E-01 -1.37517290E+00
   2.14000000E+00  7.58485349E-01 -1.42841493E+00
   2.15000000E+00  7.43939625E-01 -1.48054143E+00
   2.16000000E+00  7.28878337E-01 -1.53152297E+00
   2.17000000E+00  7.13313077E-01 -1.58133104E+00
   2.18000000E+00  6.97255720E-01 -1.62993799E+00
   2.19000000E+00  6.80718410E-01 -1.67731707E+00
   2.20000000E+00  6.63713558E-01 -1.72344244E+00
   2.21000000E+00  6.46253824E-01 -1.76828919E+00
   2.22000000E+00  6.28352116E-01 -1.81183330E+00
   2.23000000E+00  6.10021577E-01 -1.85405169E+00
   2.24000000E+00  5.91275575E-01 -1.89492220E+00
   2.25000000E+00  5.72127697E-01 -1.93442361E+00
   2.26000000E+00  5.52591734E-01 -1.97253566E+00
   2.27000000E+00  5.32681679E-01 -2.00923900E+00
   2.28000000E+00  5.12411711E-01 -2.04451524E+00
   2.29000000E+00  4.91796190E-01 -2.07834697E+00
   2.30000000E+00  4.70849642E-01 -2.11071768E+00
   2.31000000E+00  4.49586758E-01 -2.14161188E+00
   2.32000000E+00  4.28022375E-01 -2.17101500E+00
   2.33000000E+00  4.06171473E-01 -2.19891345E+00
   2.34000000E+00  3.84049164E-01 -2.22529460E+00
   2.35000000E+00  3.61670678E-01 -2.25014678E+00
   2.36000000E+00  3.39051360E-01 -2.27345931E+00
   2.37000000E+00  3.16206657E-01 -2.29522244E+00
   2.38000000E+00  2.93152106E-01 -2.31542744E+00
   2.39000000E+00  2.69903328E-01 -2.33406650E+00
   2.40000000E+00  2.46476018E-01 -2.35113280E+00
   2.41000000E+00  2.22885934E-01 -2.36662048E+00
   2.42000000E+00  1.99148887E-01 -2.38052465E+00
   2.43000000E+00  1.75280733E-01 -2.39284139E+00
   2.44000000E+00  1.51297361E-01 -2.40356771E+00
   2.45000000E+00  1.27214687E-01 -2.41270162E+00
   2.46000000E+00  1.03048640E-01 -2.42024205E+00
   2.47000000E+00  7.88151577E-02 -2.42618889E+00
   2.48000000E+00  5.45301716E-02 -2.43054299E+00
   2.49000000E+00  3.02096013E-02 -2.43330613E+00
   2.50000000E+00  5.86934332E-03 -2.43448103E+00
   2.51000000E+00 -1.84747373E-02 -2.43407135E+00
   2.52000000E+00 -4.28068168E-02 -2.43208166E+00
   2.53000000E+00 -6.71111220E-02 -2.42851747E+00
   2.54000000E+00 -9.13719392E-02 -2.42338520E+00
   2.55000000E+00 -1.15573623E-01 -2.41669217E+00
   2.56000000E+00 -1.39700607E-01 -2.40844660E+00
   2.57000000E+00 -1.63737411E-01 -2.39865761E+00
   2.58000000E+00 -1.87668648E-01 -2.38733521E+00
   2.59000000E+00 -2.11479040E-01 -2.37449027E+00
   2.60000000E+00 -2.35153417E-01 -2.36013453E+00
   2.61000000E+00 -2.58676736E-01 -2.34428060E+00
   2.62000000E+00 -2.82034080E-01 -2.32694192E+00
   2.63000000E+00 -3.05210673E-01 -2.30813280E+00
   2.64000000E+00 -3.28191885E-01 -2.28786834E+00
   2.65000000E+00 -3.50963242E-01 -2.26616448E+00
   2.66000000E+00 -3.73510432E-01 -2.24303795E+00
   2.67000000E+00 -3.95819317E-01 -2.21850629E+00
   2.68000000E+00 -4.17875935E-01 -2.19258781E+00
   2.69000000E+00 -4.39666514E-01 -2.16530159E+00
   2.70000000E+00 -4.61177474E-01 -2.13666748E+00
   2.71000000E+00 -4.82395439E-01 -2.10670606E+00
   2.72000000E+00 -5.03307242E-01 -2.07543863E+00
   2.73000000E+00 -5.23899932E-01 -2.04288724E+00
   2.74000000E+00 -5.44160782E-01 -2.00907461E+00
   2.75000000E+00 -5.64077298E-01 -1.97402416E+00
   2.76000000E+00 -5.83637220E-01 -1.93775999E+00
   2.77000000E+00 -6.02828534E-01 -1.90030684E+00
   2.78000000E+00 -6.21639478E-01 -1.86169011E+00
   2.79000000E+00 -6.40058544E-01 -1.82193581E+00
   2.80000000E+00 -6.58074491E-01 -1.78107057E+00
   2.81000000E+00 -6.75676343E-01 -1.73912163E+00
   2.82000000E+00 -6.92853404E-01 -1.69611676E+00
   2.83000000E+00 -7.09595253E-01 -1.65208435E+00
   2.84000000E+00 -7.25891762E-01 -1.60705329E+00
   2.85000000E+00 -7.41733088E-01 -1.56105301E+00
   2.86000000E+00 -7.57109691E-01 -1.51411345E+00
   2.87000000E+00 -7.72012328E-01 -1.46626504E+00
   2.88000000E+00 -7.86432065E-01 -1.41753868E+00
   2.89000000E+00 -8.00360279E-01 -1.36796571E+00
   2.90000000E+00 -8.13788663E-01 -1.31757794E+00
   2.91000000E+00 -8.26709229E-01 -1.26640756E+00
   2.92000000E+00 -8.39114314E-01 -1.21448718E+00
   2.93000000E+00 -8.50996583E-01 -1.16184977E+00
   2.94000000E+00 -8.62349031E-01 -1.10852868E+00
   2.95000000E+00 -8.73164990E-01 -1.05455757E+00
   2.96000000E+00 -8.83438129E-01 -9.99970441E-01
   2.97000000E+00 -8.93162459E-01 -9.44801590E-01
   2.98000000E+00 -9.02332337E-01 -8.89085588E-01
   2.99000000E+00 -9.10942463E-01 -8.32857266E-01
   3.00000000E+00 -9.18987891E-01 -7.76151695E-01
   3.01000000E+00 -9.26464024E-01 -7.19004162E-01
   3.02000000E+00 -9.33366620E-01 -6.61450154E-01
   3.03000000E+00 -9.39691791E-01 -6.03525334E-01
   3.04000000E+00 -9.45436010E-01 -5.45265519E-01
   3.05000000E+00 -9.50596105E-01 -4.86706666E-01
   3.06000000E+00 -9.55169266E-01 -4.27884844E-01
   3.07000000E+00 -9.59153045E-01 -3.68836215E-01
   3.08000000E+00 -9.62545355E-01 -3.09597020E-01
   3.09000000E+00 -9.65344472E-01 -2.50203546E-01
   3.10000000E+00 -9.67549033E-01 -1.90692115E-01
   3.11000000E+00 -9.69158042E-01 -1.31099058E-01
   3.12000000E+00 -9.70170863E-01 -7.14606966E-02
   3.13000000E+00 -9.70587226E-01 -1.18133209E-02
   3.14000000E+00 -9.70407220E-01  4.78068279E-02
   3.15000000E+00 -9.69631300E-01  1.07363589E-01
   3.16000000E+00 -9.68260280E-01  1.66820887E-01
   3.17000000E+00 -9.66295334E-01  2.26142760E-01
   3.18000000E+00 -9.63737996E-01  2.85293387E-01
   3.19000000E+00 -9.60590156E-01  3.44237097E-01
   3.20000000E+00 -9.56854062E-01  4.02938394E-01
   3.21000000E+00 -9.52532314E-01  4.61361978E-01
   3.22000000E+00 -9.47627865E-01  5.19472765E-01
   3.23000000E+00 -9.42144018E-01  5.77235907E-01
   3.24000000E+00 -9.36084421E-01  6.34616806E-01
   3.25000000E+00 -9.29453070E-01  6.91581142E-01
   3.26000000E+00 -9.22254300E-01  7.48094894E-01
   3.27000000E+00 -9.14492787E-01  8.04124347E-01
   3.28000000E+00 -9.06173539E-01  8.59636118E-01
   3.29000000E+00 -8.97301900E-01  9.14597178E-01
   3.30000000E+00 -8.87883540E-01  9.68974872E-01
   3.31000000E+00 -8.77924455E-01  1.02273693E+00
   3.32000000E+00 -8.67430960E-01  1.07585148E+00
   3.33000000E+00 -8.56409688E-01  1.12828709E+00
   3.34000000E+00 -8.44867585E-01  1.18001275E+00
   3.35000000E+00 -8.32811902E-01  1.23099793E+00
   3.36000000E+00 -8.20250195E-01  1.28121257E+00
   3.37000000E+00 -8.07190317E-01  1.33062709E+00
   3.38000000E+00 -7.93640417E-01  1.37921243E+00
   3.39000000E+00 -7.79608928E-01  1.42694007E+00
   3.40000000E+00 -7.65104568E-01  1.47378200E+00
   3.41000000E+00 -7.50136332E-01  1.51971080E+00
   3.42000000E+00 -7.34713485E-01  1.56469961E+00
   3.43000000E+00 -7.18845560E-01  1.60872214E+00
   3.44000000E+00 -7.02542349E-01  1.65175273E+00
   3.45000000E+00 -6.85813896E-01  1.69376633E+00
   3.46000000E+00 -6.68670494E-01  1.73473850E+00
   3.47000000E+00 -6.51122677E-01  1.77464547E+00
   3.48000000E+00 -6.33181212E-01  1.81346411E+00
   3.49000000E+00 -6.14857097E-01  1.85117196E+00
   3.50000000E+00 -5.96161548E-01  1.88774727E+00
   3.51000000E+00 -5.77105997E-01  1.92316894E+00
   3.52000000E+00 -5.57702083E-01  1.95741660E+00
   3.53000000E+00 -5.37961644E-01  1.99047059E+00
   3.54000000E+00 -5.17896713E-01  2.02231199E+00
   3.55000000E+00 -4.97519507E-01  2.05292260E+00
   3.56000000E+00 -4.76842422E-01  2.08228497E+00
   3.57000000E+00 -4.55878024E-01  2.11038242E+00
   3.58000000E+00 -4.34639044E-01  2.13719901E+00
   3.59000000E+00 -4.13138364E-01  2.16271960E+00
   3.60000000E+00 -3.91389020E-01  2.18692982E+00
   3.61000000E+00 -3.69404181E-01  2.20981609E+00
   3.62000000E+00 -3.47197154E-01  2.23136562E+00
   3.63000000E+00 -3.24781365E-01  2.25156644E+00
   3.64000000E+00 -3.02170358E-01  2.27040737E+00
   3.65000000E+00 -2.79377785E-01  2.28787805E+00
   3.66000000E+00 -2.56417396E-01  2.30396896E+00
   3.67000000E+00 -2.33303034E-01  2.31867137E+00
   3.68000000E+00 -2.10048624E-01  2.33197741E+00
   3.69000000E+00 -1.86668164E-01  2.34388002E+00
   3.70000000E+00 -1.63175722E-01  2.35437300E+00
   3.71000000E+00 -1.39585421E-01  2.36345097E+00
   3.72000000E+00 -1.15911434E-01  2.37110939E+00
   3.73000000E+00 -9.21679773E-02  2.37734457E+00
   3.74000000E+00 -6.83692967E-02  2.38215368E+00
   3.75000000E+00 -4.45296641E-02  2.38553470E+00
   3.76000000E+00 -2.06633669E-02  2.38748649E+00
   3.77000000E+00  3.21530037E-03  2.38800873E+00
   3.78000000E+00  2.70920442E-02  2.38710196E+00
   3.79000000E+00  5.09525807E-02  2.38476756E+00
   3.80000000E+00  7.47826439E-02  2.38100775E+00
   3.81000000E+00  9.85679944E-02  2.37582559E+00
   3.82000000E+00  1.22294428E-01  2.36922499E+00
   3.83000000E+00  1.45947782E-01  2.36121068E+00
   3.84000000E+00  1.69513947E-01  2.35178821E+00
   3.85000000E+00  1.92978873E-01  2.34096399E+00
   3.86000000E+00  2.16328578E-01  2.32874523E+00
   3.87000000E+00  2.39549156E-01  2.31513996E+00
   3.88000000E+00  2.62626785E-01  2.30015702E+00
   3.89000000E+00  2.85547737E-01  2.28380607E+00
   3.90000000E+00  3.08298382E-01  2.26609756E+00
