 # Radial wave functions calculated by RADIAL.
 # **** Schrodinger Eq. Numerical potential.
 #      Input potential file: potential_2A1.dat   
 #      Free state: E= 1.359724E+00, L=   2  (EPS= 1.0E-15)
 #        Inner phase shift= 4.945455900628266E-01
 #      Coulomb phase shift=-5.652326783468781E-01  (ETA=-6.064206E-01)
 #      Matching radius: RAD(  829)= 8.279999999999999E+00
 #       R              P(R)            Q(R)
   0.00000000E+00  0.00000000E+00  0.00000000E+00
   1.00000000E-02  2.29216391E-06  6.83134620E-04
   2.00000000E-02  1.79824189E-05  2.66249269E-03
   3.00000000E-02  5.95341329E-05  5.83976551E-03
   4.00000000E-02  1.38470249E-04  1.01250488E-02
   5.00000000E-02  2.65453480E-04  1.54360729E-02
   6.00000000E-02  4.50358864E-04  2.16974494E-02
   7.00000000E-02  7.02338952E-04  2.88399538E-02
   8.00000000E-02  1.02988206E-03  3.67998577E-02
   9.00000000E-02  1.44086415E-03  4.55183174E-02
   1.00000000E-01  1.94259480E-03  5.49408206E-02
   1.10000000E-01  2.54185808E-03  6.50166923E-02
   1.20000000E-01  3.24494861E-03  7.56986554E-02
   1.30000000E-01  4.05770364E-03  8.69424447E-02
   1.40000000E-01  4.98553136E-03  9.87064701E-02
   1.50000000E-01  6.03343623E-03  1.10951523E-01
   1.60000000E-01  7.20604142E-03  1.23640520E-01
   1.70000000E-01  8.50760902E-03  1.36738291E-01
   1.80000000E-01  9.94205815E-03  1.50211383E-01
   1.90000000E-01  1.15129813E-02  1.64027907E-01
   2.00000000E-01  1.32236594E-02  1.78157396E-01
   2.10000000E-01  1.50770751E-02  1.92570690E-01
   2.20000000E-01  1.70759259E-02  2.07239840E-01
   2.30000000E-01  1.92226352E-02  2.22138019E-01
   2.40000000E-01  2.15193637E-02  2.37239451E-01
   2.50000000E-01  2.39680190E-02  2.52519355E-01
   2.60000000E-01  2.65702661E-02  2.67953884E-01
   2.70000000E-01  2.93275355E-02  2.83520087E-01
   2.80000000E-01  3.22410330E-02  2.99195866E-01
   2.90000000E-01  3.53117471E-02  3.14959944E-01
   3.00000000E-01  3.85404578E-02  3.30791834E-01
   3.10000000E-01  4.19277440E-02  3.46671812E-01
   3.20000000E-01  4.54739910E-02  3.62580889E-01
   3.30000000E-01  4.91793978E-02  3.78500796E-01
   3.40000000E-01  5.30439843E-02  3.94413959E-01
   3.50000000E-01  5.70675981E-02  4.10303480E-01
   3.60000000E-01  6.12499209E-02  4.26153116E-01
   3.70000000E-01  6.55904754E-02  4.41947263E-01
   3.80000000E-01  7.00886312E-02  4.57670939E-01
   3.90000000E-01  7.47436113E-02  4.73309767E-01
   4.00000000E-01  7.95544977E-02  4.88849960E-01
   4.10000000E-01  8.45202376E-02  5.04278298E-01
   4.20000000E-01  8.96396485E-02  5.19582114E-01
   4.30000000E-01  9.49114243E-02  5.34749282E-01
   4.40000000E-01  1.00334140E-01  5.49768194E-01
   4.50000000E-01  1.05906257E-01  5.64627748E-01
   4.60000000E-01  1.11626128E-01  5.79317332E-01
   4.70000000E-01  1.17492003E-01  5.93826803E-01
   4.80000000E-01  1.23502032E-01  6.08146481E-01
   4.90000000E-01  1.29654269E-01  6.22267118E-01
   5.00000000E-01  1.35946681E-01  6.36179892E-01
   5.10000000E-01  1.42377146E-01  6.49876395E-01
   5.20000000E-01  1.48943461E-01  6.63348610E-01
   5.30000000E-01  1.55643345E-01  6.76588897E-01
   5.40000000E-01  1.62474442E-01  6.89589984E-01
   5.50000000E-01  1.69434324E-01  7.02344941E-01
   5.60000000E-01  1.76520498E-01  7.14847177E-01
   5.70000000E-01  1.83730405E-01  7.27090429E-01
   5.80000000E-01  1.91061424E-01  7.39068734E-01
   5.90000000E-01  1.98510877E-01  7.50776419E-01
   6.00000000E-01  2.06076032E-01  7.62208101E-01
   6.10000000E-01  2.13754102E-01  7.73358663E-01
   6.20000000E-01  2.21542252E-01  7.84223240E-01
   6.30000000E-01  2.29437598E-01  7.94797223E-01
   6.40000000E-01  2.37437213E-01  8.05076230E-01
   6.50000000E-01  2.45538126E-01  8.15056107E-01
   6.60000000E-01  2.53737325E-01  8.24732909E-01
   6.70000000E-01  2.62031761E-01  8.34102890E-01
   6.80000000E-01  2.70418348E-01  8.43162506E-01
   6.90000000E-01  2.78893965E-01  8.51908395E-01
   7.00000000E-01  2.87455460E-01  8.60337366E-01
   7.10000000E-01  2.96099646E-01  8.68446399E-01
   7.20000000E-01  3.04823312E-01  8.76232635E-01
   7.30000000E-01  3.13623214E-01  8.83693363E-01
   7.40000000E-01  3.22496085E-01  8.90826015E-01
   7.50000000E-01  3.31438633E-01  8.97628161E-01
   7.60000000E-01  3.40447539E-01  9.04097503E-01
   7.70000000E-01  3.49519466E-01  9.10231872E-01
   7.80000000E-01  3.58651053E-01  9.16029218E-01
   7.90000000E-01  3.67838920E-01  9.21487592E-01
   8.00000000E-01  3.77079669E-01  9.26605168E-01
   8.10000000E-01  3.86369882E-01  9.31380223E-01
   8.20000000E-01  3.95706126E-01  9.35811126E-01
   8.30000000E-01  4.05084952E-01  9.39896345E-01
   8.40000000E-01  4.14502896E-01  9.43634441E-01
   8.50000000E-01  4.23956480E-01  9.47024066E-01
   8.60000000E-01  4.33442212E-01  9.50063947E-01
   8.70000000E-01  4.42956589E-01  9.52752896E-01
   8.80000000E-01  4.52496096E-01  9.55089815E-01
   8.90000000E-01  4.62057208E-01  9.57073671E-01
   9.00000000E-01  4.71636389E-01  9.58703504E-01
   9.10000000E-01  4.81230095E-01  9.59978433E-01
   9.20000000E-01  4.90834772E-01  9.60897640E-01
   9.30000000E-01  5.00446860E-01  9.61460382E-01
   9.40000000E-01  5.10062789E-01  9.61665980E-01
   9.50000000E-01  5.19678987E-01  9.61513818E-01
   9.60000000E-01  5.29291872E-01  9.61003356E-01
   9.70000000E-01  5.38897858E-01  9.60134112E-01
   9.80000000E-01  5.48493356E-01  9.58905658E-01
   9.90000000E-01  5.58074773E-01  9.57317641E-01
   1.00000000E+00  5.67638510E-01  9.55369770E-01
   1.01000000E+00  5.77180968E-01  9.53061804E-01
   1.02000000E+00  5.86698545E-01  9.50393576E-01
   1.03000000E+00  5.96187638E-01  9.47364976E-01
   1.04000000E+00  6.05644643E-01  9.43975944E-01
   1.05000000E+00  6.15065956E-01  9.40226521E-01
   1.06000000E+00  6.24447972E-01  9.36116771E-01
   1.07000000E+00  6.33787090E-01  9.31646839E-01
   1.08000000E+00  6.43079709E-01  9.26816927E-01
   1.09000000E+00  6.52322230E-01  9.21627307E-01
   1.10000000E+00  6.61511057E-01  9.16078314E-01
   1.11000000E+00  6.70642600E-01  9.10170350E-01
   1.12000000E+00  6.79713269E-01  9.03903883E-01
   1.13000000E+00  6.88719484E-01  8.97279449E-01
   1.14000000E+00  6.97657667E-01  8.90297653E-01
   1.15000000E+00  7.06524248E-01  8.82959172E-01
   1.16000000E+00  7.15315664E-01  8.75264752E-01
   1.17000000E+00  7.24028359E-01  8.67215219E-01
   1.18000000E+00  7.32658788E-01  8.58811461E-01
   1.19000000E+00  7.41203411E-01  8.50054450E-01
   1.20000000E+00  7.49658703E-01  8.40945233E-01
   1.21000000E+00  7.58021145E-01  8.31484937E-01
   1.22000000E+00  7.66287235E-01  8.21674764E-01
   1.23000000E+00  7.74453479E-01  8.11516000E-01
   1.24000000E+00  7.82516398E-01  8.01010015E-01
   1.25000000E+00  7.90472527E-01  7.90158261E-01
   1.26000000E+00  7.98318415E-01  7.78962275E-01
   1.27000000E+00  8.06050630E-01  7.67423685E-01
   1.28000000E+00  8.13665753E-01  7.55544207E-01
   1.29000000E+00  8.21160384E-01  7.43325644E-01
   1.30000000E+00  8.28531142E-01  7.30769894E-01
   1.31000000E+00  8.35774664E-01  7.17878950E-01
   1.32000000E+00  8.42887610E-01  7.04654898E-01
   1.33000000E+00  8.49866659E-01  6.91099918E-01
   1.34000000E+00  8.56708513E-01  6.77216296E-01
   1.35000000E+00  8.63409898E-01  6.63006411E-01
   1.36000000E+00  8.69967562E-01  6.48472746E-01
   1.37000000E+00  8.76378282E-01  6.33617889E-01
   1.38000000E+00  8.82638858E-01  6.18444532E-01
   1.39000000E+00  8.88746120E-01  6.02955470E-01
   1.40000000E+00  8.94696925E-01  5.87153606E-01
   1.41000000E+00  9.00488160E-01  5.71041956E-01
   1.42000000E+00  9.06116742E-01  5.54623643E-01
   1.43000000E+00  9.11579621E-01  5.37901899E-01
   1.44000000E+00  9.16873780E-01  5.20880075E-01
   1.45000000E+00  9.21996234E-01  5.03561635E-01
   1.46000000E+00  9.26944035E-01  4.85950153E-01
   1.47000000E+00  9.31714272E-01  4.68049323E-01
   1.48000000E+00  9.36304070E-01  4.49862956E-01
   1.49000000E+00  9.40710593E-01  4.31394981E-01
   1.50000000E+00  9.44931045E-01  4.12649453E-01
   1.51000000E+00  9.48962671E-01  3.93630537E-01
   1.52000000E+00  9.52802758E-01  3.74342529E-01
   1.53000000E+00  9.56448639E-01  3.54789843E-01
   1.54000000E+00  9.59897688E-01  3.34977015E-01
   1.55000000E+00  9.63147328E-01  3.14908712E-01
   1.56000000E+00  9.66195027E-01  2.94589717E-01
   1.57000000E+00  9.69038303E-01  2.74024942E-01
   1.58000000E+00  9.71674723E-01  2.53219423E-01
   1.59000000E+00  9.74101906E-01  2.32178327E-01
   1.60000000E+00  9.76317522E-01  2.10906943E-01
   1.61000000E+00  9.78319295E-01  1.89410691E-01
   1.62000000E+00  9.80105005E-01  1.67695110E-01
   1.63000000E+00  9.81672485E-01  1.45765873E-01
   1.64000000E+00  9.83019629E-01  1.23628781E-01
   1.65000000E+00  9.84144388E-01  1.01289755E-01
   1.66000000E+00  9.85044771E-01  7.87548518E-02
   1.67000000E+00  9.85718852E-01  5.60302467E-02
   1.68000000E+00  9.86164765E-01  3.31222474E-02
   1.69000000E+00  9.86380707E-01  1.00372875E-02
   1.70000000E+00  9.86364943E-01 -1.32180766E-02
   1.71000000E+00  9.86115800E-01 -3.66371588E-02
   1.72000000E+00  9.85631676E-01 -6.02131591E-02
   1.73000000E+00  9.84911037E-01 -8.39391401E-02
   1.74000000E+00  9.83952417E-01 -1.07808050E-01
   1.75000000E+00  9.82754423E-01 -1.31812711E-01
   1.76000000E+00  9.81315735E-01 -1.55945830E-01
   1.77000000E+00  9.79635103E-01 -1.80199989E-01
   1.78000000E+00  9.77711357E-01 -2.04567652E-01
   1.79000000E+00  9.75543397E-01 -2.29041165E-01
   1.80000000E+00  9.73130206E-01 -2.53612763E-01
   1.81000000E+00  9.70470842E-01 -2.78274566E-01
   1.82000000E+00  9.67564441E-01 -3.03018574E-01
   1.83000000E+00  9.64410223E-01 -3.27836684E-01
   1.84000000E+00  9.61007488E-01 -3.52720679E-01
   1.85000000E+00  9.57355618E-01 -3.77662240E-01
   1.86000000E+00  9.53454079E-01 -4.02652936E-01
   1.87000000E+00  9.49302423E-01 -4.27684241E-01
   1.88000000E+00  9.44900288E-01 -4.52747520E-01
   1.89000000E+00  9.40247396E-01 -4.77834047E-01
   1.90000000E+00  9.35343559E-01 -5.02934994E-01
   1.91000000E+00  9.30188677E-01 -5.28041443E-01
   1.92000000E+00  9.24782741E-01 -5.53144387E-01
   1.93000000E+00  9.19125832E-01 -5.78234728E-01
   1.94000000E+00  9.13218120E-01 -6.03303280E-01
   1.95000000E+00  9.07059869E-01 -6.28340781E-01
   1.96000000E+00  9.00651439E-01 -6.53337885E-01
   1.97000000E+00  8.93993278E-01 -6.78285172E-01
   1.98000000E+00  8.87085933E-01 -7.03173150E-01
   1.99000000E+00  8.79930044E-01 -7.27992257E-01
   2.00000000E+00  8.72526349E-01 -7.52732861E-01
   2.01000000E+00  8.64875681E-01 -7.77385271E-01
   2.02000000E+00  8.56978970E-01 -8.01939735E-01
   2.03000000E+00  8.48837246E-01 -8.26386447E-01
   2.04000000E+00  8.40451633E-01 -8.50715551E-01
   2.05000000E+00  8.31823360E-01 -8.74917143E-01
   2.06000000E+00  8.22953749E-01 -8.98981269E-01
   2.07000000E+00  8.13844226E-01 -9.22897942E-01
   2.08000000E+00  8.04496315E-01 -9.46657201E-01
   2.09000000E+00  7.94911886E-01 -9.70175371E-01
   2.10000000E+00  7.85093879E-01 -9.93372093E-01
   2.11000000E+00  7.75045532E-01 -1.01624241E+00
   2.12000000E+00  7.64770135E-01 -1.03878136E+00
   2.13000000E+00  7.54271026E-01 -1.06098409E+00
   2.14000000E+00  7.43551590E-01 -1.08284581E+00
   2.15000000E+00  7.32615262E-01 -1.10436179E+00
   2.16000000E+00  7.21465522E-01 -1.12552741E+00
   2.17000000E+00  7.10105897E-01 -1.14633812E+00
   2.18000000E+00  6.98539958E-01 -1.16678944E+00
   2.19000000E+00  6.86771321E-01 -1.18687696E+00
   2.20000000E+00  6.74803645E-01 -1.20659639E+00
   2.21000000E+00  6.62640634E-01 -1.22594348E+00
   2.22000000E+00  6.50286031E-01 -1.24491409E+00
   2.23000000E+00  6.37743621E-01 -1.26350415E+00
   2.24000000E+00  6.25017230E-01 -1.28170966E+00
   2.25000000E+00  6.12110722E-01 -1.29952673E+00
   2.26000000E+00  5.99028002E-01 -1.31695155E+00
   2.27000000E+00  5.85773011E-01 -1.33398037E+00
   2.28000000E+00  5.72349727E-01 -1.35060955E+00
   2.29000000E+00  5.58762164E-01 -1.36683554E+00
   2.30000000E+00  5.45014372E-01 -1.38265485E+00
   2.31000000E+00  5.31110434E-01 -1.39806410E+00
   2.32000000E+00  5.17054468E-01 -1.41306000E+00
   2.33000000E+00  5.02850623E-01 -1.42763933E+00
   2.34000000E+00  4.88503080E-01 -1.44179899E+00
   2.35000000E+00  4.74016052E-01 -1.45553594E+00
   2.36000000E+00  4.59393780E-01 -1.46884726E+00
   2.37000000E+00  4.44640535E-01 -1.48173009E+00
   2.38000000E+00  4.29760616E-01 -1.49418170E+00
   2.39000000E+00  4.14758347E-01 -1.50619942E+00
   2.40000000E+00  3.99638082E-01 -1.51778070E+00
   2.41000000E+00  3.84404196E-01 -1.52892309E+00
   2.42000000E+00  3.69061091E-01 -1.53962420E+00
   2.43000000E+00  3.53613191E-01 -1.54988178E+00
   2.44000000E+00  3.38064941E-01 -1.55969365E+00
   2.45000000E+00  3.22420811E-01 -1.56905774E+00
   2.46000000E+00  3.06685286E-01 -1.57797208E+00
   2.47000000E+00  2.90862874E-01 -1.58643481E+00
   2.48000000E+00  2.74958101E-01 -1.59444415E+00
   2.49000000E+00  2.58975508E-01 -1.60199844E+00
   2.50000000E+00  2.42919654E-01 -1.60909611E+00
   2.51000000E+00  2.26795113E-01 -1.61573570E+00
   2.52000000E+00  2.10606472E-01 -1.62191587E+00
   2.53000000E+00  1.94358331E-01 -1.62763535E+00
   2.54000000E+00  1.78055304E-01 -1.63289301E+00
   2.55000000E+00  1.61702014E-01 -1.63768780E+00
   2.56000000E+00  1.45303094E-01 -1.64201881E+00
   2.57000000E+00  1.28863186E-01 -1.64588520E+00
   2.58000000E+00  1.12386941E-01 -1.64928626E+00
   2.59000000E+00  9.58790144E-02 -1.65222139E+00
   2.60000000E+00  7.93440681E-02 -1.65469010E+00
   2.61000000E+00  6.27867685E-02 -1.65669200E+00
   2.62000000E+00  4.62117851E-02 -1.65822681E+00
   2.63000000E+00  2.96237897E-02 -1.65929438E+00
   2.64000000E+00  1.30274551E-02 -1.65989466E+00
   2.65000000E+00 -3.57254595E-03 -1.66002770E+00
   2.66000000E+00 -2.01715420E-02 -1.65969369E+00
   2.67000000E+00 -3.67648638E-02 -1.65889291E+00
   2.68000000E+00 -5.33478457E-02 -1.65762577E+00
   2.69000000E+00 -6.99158264E-02 -1.65589278E+00
   2.70000000E+00 -8.64641506E-02 -1.65369457E+00
   2.71000000E+00 -1.02988170E-01 -1.65103189E+00
   2.72000000E+00 -1.19483243E-01 -1.64790560E+00
   2.73000000E+00 -1.35944740E-01 -1.64431668E+00
   2.74000000E+00 -1.52368038E-01 -1.64026621E+00
   2.75000000E+00 -1.68748529E-01 -1.63575541E+00
   2.76000000E+00 -1.85081616E-01 -1.63078559E+00
   2.77000000E+00 -2.01362716E-01 -1.62535819E+00
   2.78000000E+00 -2.17587260E-01 -1.61947477E+00
   2.79000000E+00 -2.33750697E-01 -1.61313700E+00
   2.80000000E+00 -2.49848491E-01 -1.60634666E+00
   2.81000000E+00 -2.65876128E-01 -1.59910567E+00
   2.82000000E+00 -2.81829109E-01 -1.59141602E+00
   2.83000000E+00 -2.97702960E-01 -1.58327987E+00
   2.84000000E+00 -3.13493226E-01 -1.57469945E+00
   2.85000000E+00 -3.29195476E-01 -1.56567713E+00
   2.86000000E+00 -3.44805304E-01 -1.55621541E+00
   2.87000000E+00 -3.60318328E-01 -1.54631686E+00
   2.88000000E+00 -3.75730194E-01 -1.53598420E+00
   2.89000000E+00 -3.91036574E-01 -1.52522025E+00
   2.90000000E+00 -4.06233171E-01 -1.51402796E+00
   2.91000000E+00 -4.21315716E-01 -1.50241038E+00
   2.92000000E+00 -4.36279971E-01 -1.49037067E+00
   2.93000000E+00 -4.51121733E-01 -1.47791211E+00
   2.94000000E+00 -4.65836829E-01 -1.46503809E+00
   2.95000000E+00 -4.80421122E-01 -1.45175213E+00
   2.96000000E+00 -4.94870510E-01 -1.43805782E+00
   2.97000000E+00 -5.09180929E-01 -1.42395890E+00
   2.98000000E+00 -5.23348352E-01 -1.40945920E+00
   2.99000000E+00 -5.37368790E-01 -1.39456266E+00
   3.00000000E+00 -5.51238296E-01 -1.37927334E+00
   3.01000000E+00 -5.64952962E-01 -1.36359540E+00
   3.02000000E+00 -5.78508923E-01 -1.34753311E+00
   3.03000000E+00 -5.91902357E-01 -1.33109084E+00
   3.04000000E+00 -6.05129488E-01 -1.31427306E+00
   3.05000000E+00 -6.18186582E-01 -1.29708437E+00
   3.06000000E+00 -6.31069955E-01 -1.27952945E+00
   3.07000000E+00 -6.43775966E-01 -1.26161308E+00
   3.08000000E+00 -6.56301028E-01 -1.24334016E+00
   3.09000000E+00 -6.68641598E-01 -1.22471568E+00
   3.10000000E+00 -6.80794186E-01 -1.20574472E+00
   3.11000000E+00 -6.92755354E-01 -1.18643249E+00
   3.12000000E+00 -7.04521716E-01 -1.16678425E+00
   3.13000000E+00 -7.16089937E-01 -1.14680539E+00
   3.14000000E+00 -7.27456740E-01 -1.12650139E+00
   3.15000000E+00 -7.38618900E-01 -1.10587781E+00
   3.16000000E+00 -7.49573250E-01 -1.08494030E+00
   3.17000000E+00 -7.60316679E-01 -1.06369464E+00
   3.18000000E+00 -7.70846134E-01 -1.04214664E+00
   3.19000000E+00 -7.81158623E-01 -1.02030223E+00
   3.20000000E+00 -7.91251211E-01 -9.98167441E-01
   3.21000000E+00 -8.01121025E-01 -9.75748353E-01
   3.22000000E+00 -8.10765251E-01 -9.53051152E-01
   3.23000000E+00 -8.20181141E-01 -9.30082098E-01
   3.24000000E+00 -8.29366008E-01 -9.06847537E-01
   3.25000000E+00 -8.38317228E-01 -8.83353888E-01
   3.26000000E+00 -8.47032244E-01 -8.59607645E-01
   3.27000000E+00 -8.55508561E-01 -8.35615382E-01
   3.28000000E+00 -8.63743754E-01 -8.11383748E-01
   3.29000000E+00 -8.71735461E-01 -7.86919459E-01
   3.30000000E+00 -8.79481390E-01 -7.62229299E-01
   3.31000000E+00 -8.86979317E-01 -7.37320123E-01
   3.32000000E+00 -8.94227085E-01 -7.12198856E-01
   3.33000000E+00 -9.01222610E-01 -6.86872483E-01
   3.34000000E+00 -9.07963875E-01 -6.61348055E-01
   3.35000000E+00 -9.14448935E-01 -6.35632679E-01
   3.36000000E+00 -9.20675916E-01 -6.09733520E-01
   3.37000000E+00 -9.26643017E-01 -5.83657809E-01
   3.38000000E+00 -9.32348508E-01 -5.57412824E-01
   3.39000000E+00 -9.37790733E-01 -5.31005898E-01
   3.40000000E+00 -9.42968110E-01 -5.04444414E-01
   3.41000000E+00 -9.47879131E-01 -4.77735807E-01
   3.42000000E+00 -9.52522361E-01 -4.50887556E-01
   3.43000000E+00 -9.56896442E-01 -4.23907184E-01
   3.44000000E+00 -9.61000090E-01 -3.96802259E-01
   3.45000000E+00 -9.64832097E-01 -3.69580387E-01
   3.46000000E+00 -9.68391333E-01 -3.42249220E-01
   3.47000000E+00 -9.71676743E-01 -3.14816436E-01
   3.48000000E+00 -9.74687349E-01 -2.87289753E-01
   3.49000000E+00 -9.77422251E-01 -2.59676920E-01
   3.50000000E+00 -9.79880626E-01 -2.31985712E-01
   3.51000000E+00 -9.82061730E-01 -2.04223938E-01
   3.52000000E+00 -9.83964896E-01 -1.76399432E-01
   3.53000000E+00 -9.85589535E-01 -1.48520047E-01
   3.54000000E+00 -9.86935140E-01 -1.20593656E-01
   3.55000000E+00 -9.88001278E-01 -9.26281584E-02
   3.56000000E+00 -9.88787599E-01 -6.46314642E-02
   3.57000000E+00 -9.89293830E-01 -3.66114976E-02
   3.58000000E+00 -9.89519778E-01 -8.57619550E-03
   3.59000000E+00 -9.89465329E-01  1.94664940E-02
   3.60000000E+00 -9.89130450E-01  4.75086181E-02
   3.61000000E+00 -9.88515185E-01  7.55422174E-02
   3.62000000E+00 -9.87619660E-01  1.03559328E-01
   3.63000000E+00 -9.86444080E-01  1.31551988E-01
   3.64000000E+00 -9.84988729E-01  1.59512239E-01
   3.65000000E+00 -9.83253970E-01  1.87432126E-01
   3.66000000E+00 -9.81240247E-01  2.15303694E-01
   3.67000000E+00 -9.78948084E-01  2.43119004E-01
   3.68000000E+00 -9.76378081E-01  2.70870129E-01
   3.69000000E+00 -9.73530921E-01  2.98549150E-01
   3.70000000E+00 -9.70407365E-01  3.26148166E-01
   3.71000000E+00 -9.67008251E-01  3.53659294E-01
   3.72000000E+00 -9.63334498E-01  3.81074673E-01
   3.73000000E+00 -9.59387103E-01  4.08386467E-01
   3.74000000E+00 -9.55167140E-01  4.35586856E-01
   3.75000000E+00 -9.50675763E-01  4.62668055E-01
   3.76000000E+00 -9.45914202E-01  4.89622307E-01
   3.77000000E+00 -9.40883766E-01  5.16441884E-01
   3.78000000E+00 -9.35585839E-01  5.43119094E-01
   3.79000000E+00 -9.30021884E-01  5.69646286E-01
   3.80000000E+00 -9.24193439E-01  5.96015842E-01
   3.81000000E+00 -9.18102118E-01  6.22220186E-01
   3.82000000E+00 -9.11749611E-01  6.48251786E-01
   3.83000000E+00 -9.05137683E-01  6.74103157E-01
   3.84000000E+00 -8.98268173E-01  6.99766861E-01
   3.85000000E+00 -8.91142996E-01  7.25235508E-01
   3.86000000E+00 -8.83764138E-01  7.50501762E-01
   3.87000000E+00 -8.76133660E-01  7.75558343E-01
   3.88000000E+00 -8.68253694E-01  8.00398022E-01
   3.89000000E+00 -8.60126446E-01  8.25013631E-01
   3.90000000E+00 -8.51754192E-01  8.49398064E-01
