 # Radial wave functions calculated by RADIAL.
 # **** Schrodinger Eq. Numerical potential.
 #      Input potential file: potential_1A1.dat   
 #      Free state: E= 4.409917E-01, L=   1  (EPS= 1.0E-15)
 #        Inner phase shift= 2.041522924336079E+00
 #      Coulomb phase shift=-5.229323375936362E-01  (ETA=-1.064829E+00)
 #      Matching radius: RAD(  847)= 8.460000000000001E+00
 #       R              P(R)            Q(R)
   0.00000000E+00  0.00000000E+00  0.00000000E+00
   1.00000000E-02  9.57448903E-04  1.88633519E-01
   2.00000000E-02  3.71754705E-03  3.60727459E-01
   3.00000000E-02  8.12069808E-03  5.17428846E-01
   4.00000000E-02  1.40183924E-02  6.59808275E-01
   5.00000000E-02  2.12724530E-02  7.88862164E-01
   6.00000000E-02  2.97543095E-02  9.05515966E-01
   7.00000000E-02  3.93443069E-02  1.01062805E+00
   8.00000000E-02  4.99310561E-02  1.10499388E+00
   9.00000000E-02  6.14108260E-02  1.18935034E+00
   1.00000000E-01  7.36869793E-02  1.26438005E+00
   1.10000000E-01  8.66694515E-02  1.33071558E+00
   1.20000000E-01  1.00274270E-01  1.38894345E+00
   1.30000000E-01  1.14423114E-01  1.43960795E+00
   1.40000000E-01  1.29042907E-01  1.48321465E+00
   1.50000000E-01  1.44065451E-01  1.52023370E+00
   1.60000000E-01  1.59427084E-01  1.55110282E+00
   1.70000000E-01  1.75068371E-01  1.57623015E+00
   1.80000000E-01  1.90933821E-01  1.59599666E+00
   1.90000000E-01  2.06971625E-01  1.61075846E+00
   2.00000000E-01  2.23133421E-01  1.62084890E+00
   2.10000000E-01  2.39374075E-01  1.62658042E+00
   2.20000000E-01  2.55651479E-01  1.62824624E+00
   2.30000000E-01  2.71926368E-01  1.62612186E+00
   2.40000000E-01  2.88162148E-01  1.62046643E+00
   2.50000000E-01  3.04324741E-01  1.61152397E+00
   2.60000000E-01  3.20382439E-01  1.59952451E+00
   2.70000000E-01  3.36305766E-01  1.58468504E+00
   2.80000000E-01  3.52067357E-01  1.56721041E+00
   2.90000000E-01  3.67641837E-01  1.54729420E+00
   3.00000000E-01  3.83005713E-01  1.52511936E+00
   3.10000000E-01  3.98137273E-01  1.50085895E+00
   3.20000000E-01  4.13016487E-01  1.47467667E+00
   3.30000000E-01  4.27624918E-01  1.44672750E+00
   3.40000000E-01  4.41945637E-01  1.41715813E+00
   3.50000000E-01  4.55963144E-01  1.38610740E+00
   3.60000000E-01  4.69663287E-01  1.35370682E+00
   3.70000000E-01  4.83033196E-01  1.32008083E+00
   3.80000000E-01  4.96061212E-01  1.28534724E+00
   3.90000000E-01  5.08736821E-01  1.24961755E+00
   4.00000000E-01  5.21050595E-01  1.21299725E+00
   4.10000000E-01  5.32994130E-01  1.17558609E+00
   4.20000000E-01  5.44559995E-01  1.13747839E+00
   4.30000000E-01  5.55741674E-01  1.09876327E+00
   4.40000000E-01  5.66533517E-01  1.05952490E+00
   4.50000000E-01  5.76930693E-01  1.01984269E+00
   4.60000000E-01  5.86929142E-01  9.79791559E-01
   4.70000000E-01  5.96525530E-01  9.39442100E-01
   4.80000000E-01  6.05717211E-01  8.98860791E-01
   4.90000000E-01  6.14502182E-01  8.58110181E-01
   5.00000000E-01  6.22879047E-01  8.17249065E-01
   5.10000000E-01  6.30846979E-01  7.76332636E-01
   5.20000000E-01  6.38405688E-01  7.35412674E-01
   5.30000000E-01  6.45555383E-01  6.94537690E-01
   5.40000000E-01  6.52296744E-01  6.53753079E-01
   5.50000000E-01  6.58630888E-01  6.13101239E-01
   5.60000000E-01  6.64559343E-01  5.72621733E-01
   5.70000000E-01  6.70084020E-01  5.32351421E-01
   5.80000000E-01  6.75207184E-01  4.92324596E-01
   5.90000000E-01  6.79931430E-01  4.52573084E-01
   6.00000000E-01  6.84259661E-01  4.13126385E-01
   6.10000000E-01  6.88195065E-01  3.74011765E-01
   6.20000000E-01  6.91741088E-01  3.35254362E-01
   6.30000000E-01  6.94901420E-01  2.96877321E-01
   6.40000000E-01  6.97679973E-01  2.58901863E-01
   6.50000000E-01  7.00080861E-01  2.21347414E-01
   6.60000000E-01  7.02108384E-01  1.84231687E-01
   6.70000000E-01  7.03767011E-01  1.47570745E-01
   6.80000000E-01  7.05061363E-01  1.11379130E-01
   6.90000000E-01  7.05996201E-01  7.56699263E-02
   7.00000000E-01  7.06576409E-01  4.04548342E-02
   7.10000000E-01  7.06806980E-01  5.74425057E-03
   7.20000000E-01  7.06693006E-01 -2.84526564E-02
   7.30000000E-01  7.06239666E-01 -6.21278787E-02
   7.40000000E-01  7.05452211E-01 -9.52744820E-02
   7.50000000E-01  7.04335958E-01 -1.27886571E-01
   7.60000000E-01  7.02896278E-01 -1.59959211E-01
   7.70000000E-01  7.01138586E-01 -1.91488366E-01
   7.80000000E-01  6.99068333E-01 -2.22470861E-01
   7.90000000E-01  6.96690999E-01 -2.52904300E-01
   8.00000000E-01  6.94012083E-01 -2.82787027E-01
   8.10000000E-01  6.91037097E-01 -3.12118089E-01
   8.20000000E-01  6.87771561E-01 -3.40897188E-01
   8.30000000E-01  6.84220992E-01 -3.69124605E-01
   8.40000000E-01  6.80390905E-01 -3.96801182E-01
   8.50000000E-01  6.76286800E-01 -4.23928292E-01
   8.60000000E-01  6.71914165E-01 -4.50507775E-01
   8.70000000E-01  6.67278463E-01 -4.76541911E-01
   8.80000000E-01  6.62385135E-01 -5.02033389E-01
   8.90000000E-01  6.57239594E-01 -5.26985278E-01
   9.00000000E-01  6.51847217E-01 -5.51400985E-01
   9.10000000E-01  6.46213349E-01 -5.75284227E-01
   9.20000000E-01  6.40343294E-01 -5.98639006E-01
   9.30000000E-01  6.34242316E-01 -6.21469580E-01
   9.40000000E-01  6.27915635E-01 -6.43780430E-01
   9.50000000E-01  6.21368424E-01 -6.65576258E-01
   9.60000000E-01  6.14605810E-01 -6.86861943E-01
   9.70000000E-01  6.07632869E-01 -7.07642523E-01
   9.80000000E-01  6.00454626E-01 -7.27923192E-01
   9.90000000E-01  5.93076054E-01 -7.47709257E-01
   1.00000000E+00  5.85502072E-01 -7.67006132E-01
   1.01000000E+00  5.77737544E-01 -7.85819318E-01
   1.02000000E+00  5.69787279E-01 -8.04154385E-01
   1.03000000E+00  5.61656031E-01 -8.22016962E-01
   1.04000000E+00  5.53348496E-01 -8.39412754E-01
   1.05000000E+00  5.44869313E-01 -8.56347440E-01
   1.06000000E+00  5.36223065E-01 -8.72826754E-01
   1.07000000E+00  5.27414277E-01 -8.88856431E-01
   1.08000000E+00  5.18447416E-01 -9.04442201E-01
   1.09000000E+00  5.09326893E-01 -9.19589777E-01
   1.10000000E+00  5.00057062E-01 -9.34304855E-01
   1.11000000E+00  4.90642219E-01 -9.48593097E-01
   1.12000000E+00  4.81086604E-01 -9.62460123E-01
   1.13000000E+00  4.71394402E-01 -9.75911512E-01
   1.14000000E+00  4.61569741E-01 -9.88952785E-01
   1.15000000E+00  4.51616695E-01 -1.00158941E+00
   1.16000000E+00  4.41539284E-01 -1.01382677E+00
   1.17000000E+00  4.31341473E-01 -1.02567021E+00
   1.18000000E+00  4.21027175E-01 -1.03712497E+00
   1.19000000E+00  4.10600251E-01 -1.04819624E+00
   1.20000000E+00  4.00064512E-01 -1.05888909E+00
   1.21000000E+00  3.89423714E-01 -1.06920853E+00
   1.22000000E+00  3.78681569E-01 -1.07915948E+00
   1.23000000E+00  3.67841737E-01 -1.08874676E+00
   1.24000000E+00  3.56907831E-01 -1.09797508E+00
   1.25000000E+00  3.45883416E-01 -1.10684909E+00
   1.26000000E+00  3.34772015E-01 -1.11537332E+00
   1.27000000E+00  3.23577101E-01 -1.12355219E+00
   1.28000000E+00  3.12302108E-01 -1.13139004E+00
   1.29000000E+00  3.00950423E-01 -1.13889108E+00
   1.30000000E+00  2.89525395E-01 -1.14605946E+00
   1.31000000E+00  2.78030330E-01 -1.15289918E+00
   1.32000000E+00  2.66468494E-01 -1.15941417E+00
   1.33000000E+00  2.54843116E-01 -1.16560824E+00
   1.34000000E+00  2.43157386E-01 -1.17148510E+00
   1.35000000E+00  2.31414459E-01 -1.17704836E+00
   1.36000000E+00  2.19617453E-01 -1.18230153E+00
   1.37000000E+00  2.07769451E-01 -1.18724801E+00
   1.38000000E+00  1.95873504E-01 -1.19189110E+00
   1.39000000E+00  1.83932630E-01 -1.19623401E+00
   1.40000000E+00  1.71949814E-01 -1.20027983E+00
   1.41000000E+00  1.59928013E-01 -1.20403158E+00
   1.42000000E+00  1.47870153E-01 -1.20749217E+00
   1.43000000E+00  1.35779131E-01 -1.21066440E+00
   1.44000000E+00  1.23657817E-01 -1.21355100E+00
   1.45000000E+00  1.11509054E-01 -1.21615460E+00
   1.46000000E+00  9.93356598E-02 -1.21847773E+00
   1.47000000E+00  8.71404262E-02 -1.22052286E+00
   1.48000000E+00  7.49261216E-02 -1.22229233E+00
   1.49000000E+00  6.26954909E-02 -1.22378843E+00
   1.50000000E+00  5.04512569E-02 -1.22501335E+00
   1.51000000E+00  3.81961207E-02 -1.22596922E+00
   1.52000000E+00  2.59327627E-02 -1.22665806E+00
   1.53000000E+00  1.36638430E-02 -1.22708184E+00
   1.54000000E+00  1.39200301E-03 -1.22724245E+00
   1.55000000E+00 -1.08801348E-02 -1.22714170E+00
   1.56000000E+00 -2.31499657E-02 -1.22678134E+00
   1.57000000E+00 -3.54149018E-02 -1.22616304E+00
   1.58000000E+00 -4.76723720E-02 -1.22528841E+00
   1.59000000E+00 -5.99198208E-02 -1.22415902E+00
   1.60000000E+00 -7.21547081E-02 -1.22277634E+00
   1.61000000E+00 -8.43745081E-02 -1.22114181E+00
   1.62000000E+00 -9.65767093E-02 -1.21925680E+00
   1.63000000E+00 -1.08758814E-01 -1.21712265E+00
   1.64000000E+00 -1.20918336E-01 -1.21474062E+00
   1.65000000E+00 -1.33052804E-01 -1.21211193E+00
   1.66000000E+00 -1.45159756E-01 -1.20923778E+00
   1.67000000E+00 -1.57236745E-01 -1.20611929E+00
   1.68000000E+00 -1.69281331E-01 -1.20275755E+00
   1.69000000E+00 -1.81291089E-01 -1.19915364E+00
   1.70000000E+00 -1.93263600E-01 -1.19530856E+00
   1.71000000E+00 -2.05196459E-01 -1.19122330E+00
   1.72000000E+00 -2.17087269E-01 -1.18689883E+00
   1.73000000E+00 -2.28933642E-01 -1.18233607E+00
   1.74000000E+00 -2.40733199E-01 -1.17753592E+00
   1.75000000E+00 -2.52483572E-01 -1.17249927E+00
   1.76000000E+00 -2.64182399E-01 -1.16722697E+00
   1.77000000E+00 -2.75827328E-01 -1.16171985E+00
   1.78000000E+00 -2.87416016E-01 -1.15597875E+00
   1.79000000E+00 -2.98946126E-01 -1.15000447E+00
   1.80000000E+00 -3.10415331E-01 -1.14379780E+00
   1.81000000E+00 -3.21821310E-01 -1.13735954E+00
   1.82000000E+00 -3.33161752E-01 -1.13069047E+00
   1.83000000E+00 -3.44434353E-01 -1.12379135E+00
   1.84000000E+00 -3.55636815E-01 -1.11666297E+00
   1.85000000E+00 -3.66766850E-01 -1.10930609E+00
   1.86000000E+00 -3.77822178E-01 -1.10172149E+00
   1.87000000E+00 -3.88800524E-01 -1.09390995E+00
   1.88000000E+00 -3.99699623E-01 -1.08587225E+00
   1.89000000E+00 -4.10517217E-01 -1.07760919E+00
   1.90000000E+00 -4.21251058E-01 -1.06912157E+00
   1.91000000E+00 -4.31898903E-01 -1.06041020E+00
   1.92000000E+00 -4.42458519E-01 -1.05147592E+00
   1.93000000E+00 -4.52927681E-01 -1.04231958E+00
   1.94000000E+00 -4.63304173E-01 -1.03294204E+00
   1.95000000E+00 -4.73585788E-01 -1.02334418E+00
   1.96000000E+00 -4.83770326E-01 -1.01352692E+00
   1.97000000E+00 -4.93855598E-01 -1.00349119E+00
   1.98000000E+00 -5.03839425E-01 -9.93237959E-01
   1.99000000E+00 -5.13719635E-01 -9.82768200E-01
   2.00000000E+00 -5.23494070E-01 -9.72082939E-01
   2.01000000E+00 -5.33160579E-01 -9.61183224E-01
   2.02000000E+00 -5.42717023E-01 -9.50070140E-01
   2.03000000E+00 -5.52161275E-01 -9.38744802E-01
   2.04000000E+00 -5.61491216E-01 -9.27208368E-01
   2.05000000E+00 -5.70704742E-01 -9.15462029E-01
   2.06000000E+00 -5.79799761E-01 -9.03507017E-01
   2.07000000E+00 -5.88774191E-01 -8.91344608E-01
   2.08000000E+00 -5.97625966E-01 -8.78976073E-01
   2.09000000E+00 -6.06353215E-01 -8.66458432E-01
   2.10000000E+00 -6.14954832E-01 -8.53850149E-01
   2.11000000E+00 -6.23429928E-01 -8.41154634E-01
   2.12000000E+00 -6.31777646E-01 -8.28375271E-01
   2.13000000E+00 -6.39997165E-01 -8.15515371E-01
   2.14000000E+00 -6.48087695E-01 -8.02578173E-01
   2.15000000E+00 -6.56048481E-01 -7.89566851E-01
   2.16000000E+00 -6.63878796E-01 -7.76484510E-01
   2.17000000E+00 -6.71577945E-01 -7.63334192E-01
   2.18000000E+00 -6.79145263E-01 -7.50118872E-01
   2.19000000E+00 -6.86580115E-01 -7.36841469E-01
   2.20000000E+00 -6.93881895E-01 -7.23504840E-01
   2.21000000E+00 -7.01050024E-01 -7.10111783E-01
   2.22000000E+00 -7.08083952E-01 -6.96665043E-01
   2.23000000E+00 -7.14983155E-01 -6.83167308E-01
   2.24000000E+00 -7.21747136E-01 -6.69621214E-01
   2.25000000E+00 -7.28375426E-01 -6.56029346E-01
   2.26000000E+00 -7.34867579E-01 -6.42394237E-01
   2.27000000E+00 -7.41223175E-01 -6.28718374E-01
   2.28000000E+00 -7.47441819E-01 -6.15004198E-01
   2.29000000E+00 -7.53523139E-01 -6.01254101E-01
   2.30000000E+00 -7.59466789E-01 -5.87470433E-01
   2.31000000E+00 -7.65272444E-01 -5.73655501E-01
   2.32000000E+00 -7.70939803E-01 -5.59811572E-01
   2.33000000E+00 -7.76468586E-01 -5.45940869E-01
   2.34000000E+00 -7.81858538E-01 -5.32045580E-01
   2.35000000E+00 -7.87109423E-01 -5.18127853E-01
   2.36000000E+00 -7.92221027E-01 -5.04189803E-01
   2.37000000E+00 -7.97193158E-01 -4.90233503E-01
   2.38000000E+00 -8.02025643E-01 -4.76261000E-01
   2.39000000E+00 -8.06718331E-01 -4.62274301E-01
   2.40000000E+00 -8.11271089E-01 -4.48275384E-01
   2.41000000E+00 -8.15683804E-01 -4.34266198E-01
   2.42000000E+00 -8.19956385E-01 -4.20248659E-01
   2.43000000E+00 -8.24088756E-01 -4.06224654E-01
   2.44000000E+00 -8.28080863E-01 -3.92196045E-01
   2.45000000E+00 -8.31932668E-01 -3.78164664E-01
   2.46000000E+00 -8.35644153E-01 -3.64132318E-01
   2.47000000E+00 -8.39215317E-01 -3.50100785E-01
   2.48000000E+00 -8.42646177E-01 -3.36071826E-01
   2.49000000E+00 -8.45936768E-01 -3.22047172E-01
   2.50000000E+00 -8.49087140E-01 -3.08028534E-01
   2.51000000E+00 -8.52097364E-01 -2.94017598E-01
   2.52000000E+00 -8.54967524E-01 -2.80016032E-01
   2.53000000E+00 -8.57697721E-01 -2.66025480E-01
   2.54000000E+00 -8.60288075E-01 -2.52047570E-01
   2.55000000E+00 -8.62738720E-01 -2.38083906E-01
   2.56000000E+00 -8.65049806E-01 -2.24136076E-01
   2.57000000E+00 -8.67221500E-01 -2.10205648E-01
   2.58000000E+00 -8.69253982E-01 -1.96294175E-01
   2.59000000E+00 -8.71147451E-01 -1.82403191E-01
   2.60000000E+00 -8.72902120E-01 -1.68534213E-01
   2.61000000E+00 -8.74518214E-01 -1.54688745E-01
   2.62000000E+00 -8.75995978E-01 -1.40868274E-01
   2.63000000E+00 -8.77335668E-01 -1.27074268E-01
   2.64000000E+00 -8.78537556E-01 -1.13308186E-01
   2.65000000E+00 -8.79601929E-01 -9.95714703E-02
   2.66000000E+00 -8.80529088E-01 -8.58655508E-02
   2.67000000E+00 -8.81319348E-01 -7.21918419E-02
   2.68000000E+00 -8.81973037E-01 -5.85517477E-02
   2.69000000E+00 -8.82490499E-01 -4.49466582E-02
   2.70000000E+00 -8.82872092E-01 -3.13779497E-02
   2.71000000E+00 -8.83118184E-01 -1.78469909E-02
   2.72000000E+00 -8.83229162E-01 -4.35513409E-03
   2.73000000E+00 -8.83205422E-01  9.09627533E-03
   2.74000000E+00 -8.83047375E-01  2.25059076E-02
   2.75000000E+00 -8.82755447E-01  3.58724398E-02
   2.76000000E+00 -8.82330075E-01  4.91945595E-02
   2.77000000E+00 -8.81771708E-01  6.24709684E-02
   2.78000000E+00 -8.81080812E-01  7.57003758E-02
   2.79000000E+00 -8.80257862E-01  8.88815005E-02
   2.80000000E+00 -8.79303347E-01  1.02013070E-01
   2.81000000E+00 -8.78217770E-01  1.15093825E-01
   2.82000000E+00 -8.77001644E-01  1.28122512E-01
   2.83000000E+00 -8.75655497E-01  1.41097886E-01
   2.84000000E+00 -8.74179868E-01  1.54018716E-01
   2.85000000E+00 -8.72575309E-01  1.66883775E-01
   2.86000000E+00 -8.70842383E-01  1.79691848E-01
   2.87000000E+00 -8.68981666E-01  1.92441727E-01
   2.88000000E+00 -8.66993746E-01  2.05132211E-01
   2.89000000E+00 -8.64879224E-01  2.17762111E-01
   2.90000000E+00 -8.62638710E-01  2.30330244E-01
   2.91000000E+00 -8.60272829E-01  2.42835435E-01
   2.92000000E+00 -8.57782215E-01  2.55276520E-01
   2.93000000E+00 -8.55167516E-01  2.67652340E-01
   2.94000000E+00 -8.52429389E-01  2.79961746E-01
   2.95000000E+00 -8.49568506E-01  2.92203597E-01
   2.96000000E+00 -8.46585547E-01  3.04376760E-01
   2.97000000E+00 -8.43481204E-01  3.16480109E-01
   2.98000000E+00 -8.40256181E-01  3.28512529E-01
   2.99000000E+00 -8.36911193E-01  3.40472910E-01
   3.00000000E+00 -8.33446966E-01  3.52360149E-01
   3.01000000E+00 -8.29864238E-01  3.64173156E-01
   3.02000000E+00 -8.26163754E-01  3.75910843E-01
   3.03000000E+00 -8.22346275E-01  3.87572138E-01
   3.04000000E+00 -8.18412570E-01  3.99155969E-01
   3.05000000E+00 -8.14363418E-01  4.10661278E-01
   3.06000000E+00 -8.10199609E-01  4.22087012E-01
   3.07000000E+00 -8.05921946E-01  4.33432125E-01
   3.08000000E+00 -8.01531239E-01  4.44695585E-01
   3.09000000E+00 -7.97028310E-01  4.55876362E-01
   3.10000000E+00 -7.92413991E-01  4.66973440E-01
   3.11000000E+00 -7.87689124E-01  4.77985806E-01
   3.12000000E+00 -7.82854560E-01  4.88912461E-01
   3.13000000E+00 -7.77911163E-01  4.99752410E-01
   3.14000000E+00 -7.72859805E-01  5.10504667E-01
   3.15000000E+00 -7.67701366E-01  5.21168261E-01
   3.16000000E+00 -7.62436738E-01  5.31742219E-01
   3.17000000E+00 -7.57066823E-01  5.42225587E-01
   3.18000000E+00 -7.51592532E-01  5.52617415E-01
   3.19000000E+00 -7.46014783E-01  5.62916762E-01
   3.20000000E+00 -7.40334508E-01  5.73122697E-01
   3.21000000E+00 -7.34552644E-01  5.83234297E-01
   3.22000000E+00 -7.28670139E-01  5.93250653E-01
   3.23000000E+00 -7.22687951E-01  6.03170858E-01
   3.24000000E+00 -7.16607046E-01  6.12994019E-01
   3.25000000E+00 -7.10428397E-01  6.22719254E-01
   3.26000000E+00 -7.04152990E-01  6.32345688E-01
   3.27000000E+00 -6.97781816E-01  6.41872453E-01
   3.28000000E+00 -6.91315876E-01  6.51298700E-01
   3.29000000E+00 -6.84756180E-01  6.60623581E-01
   3.30000000E+00 -6.78103745E-01  6.69846262E-01
   3.31000000E+00 -6.71359598E-01  6.78965918E-01
   3.32000000E+00 -6.64524773E-01  6.87981738E-01
   3.33000000E+00 -6.57600312E-01  6.96892917E-01
   3.34000000E+00 -6.50587266E-01  7.05698657E-01
   3.35000000E+00 -6.43486693E-01  7.14398179E-01
   3.36000000E+00 -6.36299659E-01  7.22990711E-01
   3.37000000E+00 -6.29027238E-01  7.31475491E-01
   3.38000000E+00 -6.21670511E-01  7.39851769E-01
   3.39000000E+00 -6.14230566E-01  7.48118807E-01
   3.40000000E+00 -6.06708501E-01  7.56275876E-01
   3.41000000E+00 -5.99105418E-01  7.64322257E-01
   3.42000000E+00 -5.91422427E-01  7.72257248E-01
   3.43000000E+00 -5.83660647E-01  7.80080149E-01
   3.44000000E+00 -5.75821200E-01  7.87790281E-01
   3.45000000E+00 -5.67905219E-01  7.95386973E-01
   3.46000000E+00 -5.59913841E-01  8.02869565E-01
   3.47000000E+00 -5.51848210E-01  8.10237408E-01
   3.48000000E+00 -5.43709477E-01  8.17489865E-01
   3.49000000E+00 -5.35498800E-01  8.24626316E-01
   3.50000000E+00 -5.27217340E-01  8.31646147E-01
   3.51000000E+00 -5.18866267E-01  8.38548757E-01
   3.52000000E+00 -5.10446757E-01  8.45333560E-01
   3.53000000E+00 -5.01959991E-01  8.51999981E-01
   3.54000000E+00 -4.93407154E-01  8.58547456E-01
   3.55000000E+00 -4.84789440E-01  8.64975437E-01
   3.56000000E+00 -4.76108046E-01  8.71283385E-01
   3.57000000E+00 -4.67364174E-01  8.77470776E-01
   3.58000000E+00 -4.58559034E-01  8.83537099E-01
   3.59000000E+00 -4.49693837E-01  8.89481853E-01
   3.60000000E+00 -4.40769804E-01  8.95304552E-01
   3.61000000E+00 -4.31788155E-01  9.01004724E-01
   3.62000000E+00 -4.22750119E-01  9.06581908E-01
   3.63000000E+00 -4.13656928E-01  9.12035658E-01
   3.64000000E+00 -4.04509819E-01  9.17365539E-01
   3.65000000E+00 -3.95310032E-01  9.22571133E-01
   3.66000000E+00 -3.86058812E-01  9.27652031E-01
   3.67000000E+00 -3.76757408E-01  9.32607841E-01
   3.68000000E+00 -3.67407073E-01  9.37438182E-01
   3.69000000E+00 -3.58009064E-01  9.42142687E-01
   3.70000000E+00 -3.48564640E-01  9.46721005E-01
   3.71000000E+00 -3.39075065E-01  9.51172797E-01
   3.72000000E+00 -3.29541607E-01  9.55497735E-01
   3.73000000E+00 -3.19965535E-01  9.59695510E-01
   3.74000000E+00 -3.10348122E-01  9.63765824E-01
   3.75000000E+00 -3.00690644E-01  9.67708394E-01
   3.76000000E+00 -2.90994380E-01  9.71522950E-01
   3.77000000E+00 -2.81260613E-01  9.75209234E-01
   3.78000000E+00 -2.71490624E-01  9.78767008E-01
   3.79000000E+00 -2.61685701E-01  9.82196042E-01
   3.80000000E+00 -2.51847133E-01  9.85496124E-01
   3.81000000E+00 -2.41976210E-01  9.88667054E-01
   3.82000000E+00 -2.32074223E-01  9.91708648E-01
   3.83000000E+00 -2.22142468E-01  9.94620734E-01
   3.84000000E+00 -2.12182241E-01  9.97403158E-01
   3.85000000E+00 -2.02194838E-01  1.00005578E+00
   3.86000000E+00 -1.92181558E-01  1.00257846E+00
   3.87000000E+00 -1.82143702E-01  1.00497110E+00
   3.88000000E+00 -1.72082570E-01  1.00723359E+00
   3.89000000E+00 -1.61999464E-01  1.00936586E+00
   3.90000000E+00 -1.51895687E-01  1.01136782E+00
