 # Radial wave functions calculated by RADIAL.
 # **** Schrodinger Eq. Numerical potential.
 #      Input potential file: potential_1T2z.dat  
 #      Free state: E= 2.719449E+00, L=   5  (EPS= 1.0E-15)
 #        Inner phase shift= 0.000000000000000E+00
 #      Coulomb phase shift=-7.319960925789948E-01  (ETA=-4.287899E-01)
 #      Matching radius: RAD(   11)= 1.000000000000000E-01
 #       R              P(R)            Q(R)
   0.00000000E+00  0.00000000E+00  0.00000000E+00
   1.00000000E-02  2.97139741E-14  1.78235257E-11
   2.00000000E-02  1.89826124E-12  5.69138597E-10
   3.00000000E-02  2.15844921E-11  4.31306986E-09
   4.00000000E-02  1.21056644E-10  1.81362896E-08
   5.00000000E-02  4.60938194E-10  5.52260585E-08
   6.00000000E-02  1.37374388E-09  1.37110717E-07
   7.00000000E-02  3.45735344E-09  2.95666401E-07
   8.00000000E-02  7.68837220E-09  5.75087334E-07
   9.00000000E-02  1.55550041E-08  1.03381768E-06
   1.00000000E-01  2.92090422E-08  1.74644280E-06
   1.10000000E-01  5.17384899E-08  2.81659029E-06
   1.20000000E-01  8.70755360E-08  4.33813448E-06
   1.30000000E-01  1.40481946E-07  6.45469395E-06
   1.40000000E-01  2.18674830E-07  9.32371460E-06
   1.50000000E-01  3.30069974E-07  1.31277449E-05
   1.60000000E-01  4.85040643E-07  1.80759898E-05
   1.70000000E-01  6.96191832E-07  2.44058428E-05
   1.80000000E-01  9.78649637E-07  3.23843748E-05
   1.90000000E-01  1.35036527E-06  4.23097726E-05
   2.00000000E-01  1.83243316E-06  5.45127200E-05
   2.10000000E-01  2.44942262E-06  6.93577213E-05
   2.20000000E-01  3.22972236E-06  8.72443620E-05
   2.30000000E-01  4.20589738E-06  1.08608508E-04
   2.40000000E-01  5.41505751E-06  1.33923437E-04
   2.50000000E-01  6.89923688E-06  1.63700911E-04
   2.60000000E-01  8.70578386E-06  1.98492172E-04
   2.70000000E-01  1.08877605E-05  2.38888876E-04
   2.80000000E-01  1.35043513E-05  2.85523959E-04
   2.90000000E-01  1.66212796E-05  3.39072422E-04
   3.00000000E-01  2.03112322E-05  4.00252059E-04
   3.10000000E-01  2.46542905E-05  4.69824101E-04
   3.20000000E-01  2.97383681E-05  5.48593793E-04
   3.30000000E-01  3.56596528E-05  6.37410894E-04
   3.40000000E-01  4.25230546E-05  7.37170104E-04
   3.50000000E-01  5.04426568E-05  8.48811416E-04
   3.60000000E-01  5.95421700E-05  9.73320391E-04
   3.70000000E-01  6.99553895E-05  1.11172836E-03
   3.80000000E-01  8.18266528E-05  1.26511253E-03
   3.90000000E-01  9.53112996E-05  1.43459607E-03
   4.00000000E-01  1.10576131E-04  1.62134803E-03
   4.10000000E-01  1.27799866E-04  1.82658327E-03
   4.20000000E-01  1.47173603E-04  2.05156225E-03
   4.30000000E-01  1.68901271E-04  2.29759078E-03
   4.40000000E-01  1.93200082E-04  2.56601967E-03
   4.50000000E-01  2.20300979E-04  2.85824432E-03
   4.60000000E-01  2.50449081E-04  3.17570423E-03
   4.70000000E-01  2.83904120E-04  3.51988240E-03
   4.80000000E-01  3.20940871E-04  3.89230471E-03
   4.90000000E-01  3.61849583E-04  4.29453917E-03
   5.00000000E-01  4.06936389E-04  4.72819516E-03
   5.10000000E-01  4.56523719E-04  5.19492248E-03
   5.20000000E-01  5.10950703E-04  5.69641049E-03
   5.30000000E-01  5.70573553E-04  6.23438701E-03
   5.40000000E-01  6.35765952E-04  6.81061726E-03
   5.50000000E-01  7.06919412E-04  7.42690270E-03
   5.60000000E-01  7.84443640E-04  8.08507974E-03
   5.70000000E-01  8.68766876E-04  8.78701847E-03
   5.80000000E-01  9.60336220E-04  9.53462128E-03
   5.90000000E-01  1.05961796E-03  1.03298214E-02
   6.00000000E-01  1.16709784E-03  1.11745813E-02
   6.10000000E-01  1.28328141E-03  1.20708913E-02
   6.20000000E-01  1.40869422E-03  1.30207677E-02
   6.30000000E-01  1.54388212E-03  1.40262513E-02
   6.40000000E-01  1.68941148E-03  1.50894055E-02
   6.50000000E-01  1.84586941E-03  1.62123142E-02
   6.60000000E-01  2.01386396E-03  1.73970806E-02
   6.70000000E-01  2.19402428E-03  1.86458244E-02
   6.80000000E-01  2.38700082E-03  1.99606806E-02
   6.90000000E-01  2.59346542E-03  2.13437967E-02
   7.00000000E-01  2.81411148E-03  2.27973313E-02
   7.10000000E-01  3.04965400E-03  2.43234514E-02
   7.20000000E-01  3.30082970E-03  2.59243303E-02
   7.30000000E-01  3.56839706E-03  2.76021455E-02
   7.40000000E-01  3.85313633E-03  2.93590763E-02
   7.50000000E-01  4.15584957E-03  3.11973015E-02
   7.60000000E-01  4.47736059E-03  3.31189969E-02
   7.70000000E-01  4.81851497E-03  3.51263330E-02
   7.80000000E-01  5.18017993E-03  3.72214724E-02
   7.90000000E-01  5.56324428E-03  3.94065675E-02
   8.00000000E-01  5.96861827E-03  4.16837578E-02
   8.10000000E-01  6.39723350E-03  4.40551673E-02
   8.20000000E-01  6.85004270E-03  4.65229022E-02
   8.30000000E-01  7.32801958E-03  4.90890479E-02
   8.40000000E-01  7.83215857E-03  5.17556666E-02
   8.50000000E-01  8.36347461E-03  5.45247947E-02
   8.60000000E-01  8.92300286E-03  5.73984399E-02
   8.70000000E-01  9.51179839E-03  6.03785786E-02
   8.80000000E-01  1.01309359E-02  6.34671534E-02
   8.90000000E-01  1.07815093E-02  6.66660700E-02
   9.00000000E-01  1.14646313E-02  6.99771948E-02
   9.10000000E-01  1.21814333E-02  7.34023519E-02
   9.20000000E-01  1.29330644E-02  7.69433206E-02
   9.30000000E-01  1.37206915E-02  8.06018327E-02
   9.40000000E-01  1.45454985E-02  8.43795693E-02
   9.50000000E-01  1.54086857E-02  8.82781588E-02
   9.60000000E-01  1.63114697E-02  9.22991733E-02
   9.70000000E-01  1.72550823E-02  9.64441268E-02
   9.80000000E-01  1.82407703E-02  1.00714472E-01
   9.90000000E-01  1.92697944E-02  1.05111597E-01
   1.00000000E+00  2.03434292E-02  1.09636824E-01
   1.01000000E+00  2.14629621E-02  1.14291406E-01
   1.02000000E+00  2.26296925E-02  1.19076524E-01
   1.03000000E+00  2.38449314E-02  1.23993284E-01
   1.04000000E+00  2.51100004E-02  1.29042715E-01
   1.05000000E+00  2.64262311E-02  1.34225767E-01
   1.06000000E+00  2.77949640E-02  1.39543308E-01
   1.07000000E+00  2.92175482E-02  1.44996119E-01
   1.08000000E+00  3.06953397E-02  1.50584898E-01
   1.09000000E+00  3.22297014E-02  1.56310249E-01
   1.10000000E+00  3.38220016E-02  1.62172688E-01
   1.11000000E+00  3.54736135E-02  1.68172634E-01
   1.12000000E+00  3.71859138E-02  1.74310412E-01
   1.13000000E+00  3.89602819E-02  1.80586246E-01
   1.14000000E+00  4.07980993E-02  1.87000261E-01
   1.15000000E+00  4.27007478E-02  1.93552477E-01
   1.16000000E+00  4.46696092E-02  2.00242812E-01
   1.17000000E+00  4.67060638E-02  2.07071073E-01
   1.18000000E+00  4.88114895E-02  2.14036962E-01
   1.19000000E+00  5.09872605E-02  2.21140068E-01
   1.20000000E+00  5.32347465E-02  2.28379867E-01
   1.21000000E+00  5.55553113E-02  2.35755722E-01
   1.22000000E+00  5.79503119E-02  2.43266878E-01
   1.23000000E+00  6.04210970E-02  2.50912466E-01
   1.24000000E+00  6.29690061E-02  2.58691493E-01
   1.25000000E+00  6.55953680E-02  2.66602849E-01
   1.26000000E+00  6.83015001E-02  2.74645301E-01
   1.27000000E+00  7.10887065E-02  2.82817491E-01
   1.28000000E+00  7.39582774E-02  2.91117939E-01
   1.29000000E+00  7.69114875E-02  2.99545038E-01
   1.30000000E+00  7.99495946E-02  3.08097054E-01
   1.31000000E+00  8.30738388E-02  3.16772126E-01
   1.32000000E+00  8.62854407E-02  3.25568265E-01
   1.33000000E+00  8.95856006E-02  3.34483351E-01
   1.34000000E+00  9.29754967E-02  3.43515136E-01
   1.35000000E+00  9.64562844E-02  3.52661239E-01
   1.36000000E+00  1.00029094E-01  3.61919150E-01
   1.37000000E+00  1.03695031E-01  3.71286228E-01
   1.38000000E+00  1.07455173E-01  3.80759697E-01
   1.39000000E+00  1.11310570E-01  3.90336652E-01
   1.40000000E+00  1.15262241E-01  4.00014054E-01
   1.41000000E+00  1.19311176E-01  4.09788734E-01
   1.42000000E+00  1.23458329E-01  4.19657389E-01
   1.43000000E+00  1.27704625E-01  4.29616584E-01
   1.44000000E+00  1.32050951E-01  4.39662754E-01
   1.45000000E+00  1.36498158E-01  4.49792202E-01
   1.46000000E+00  1.41047060E-01  4.60001100E-01
   1.47000000E+00  1.45698431E-01  4.70285490E-01
   1.48000000E+00  1.50453008E-01  4.80641285E-01
   1.49000000E+00  1.55311481E-01  4.91064270E-01
   1.50000000E+00  1.60274502E-01  5.01550100E-01
   1.51000000E+00  1.65342678E-01  5.12094306E-01
   1.52000000E+00  1.70516568E-01  5.22692292E-01
   1.53000000E+00  1.75796687E-01  5.33339339E-01
   1.54000000E+00  1.81183502E-01  5.44030604E-01
   1.55000000E+00  1.86677430E-01  5.54761123E-01
   1.56000000E+00  1.92278838E-01  5.65525812E-01
   1.57000000E+00  1.97988043E-01  5.76319468E-01
   1.58000000E+00  2.03805307E-01  5.87136774E-01
   1.59000000E+00  2.09730839E-01  5.97972295E-01
   1.60000000E+00  2.15764795E-01  6.08820486E-01
   1.61000000E+00  2.21907272E-01  6.19675691E-01
   1.62000000E+00  2.28158313E-01  6.30532145E-01
   1.63000000E+00  2.34517900E-01  6.41383977E-01
   1.64000000E+00  2.40985957E-01  6.52225212E-01
   1.65000000E+00  2.47562348E-01  6.63049776E-01
   1.66000000E+00  2.54246876E-01  6.73851495E-01
   1.67000000E+00  2.61039281E-01  6.84624097E-01
   1.68000000E+00  2.67939240E-01  6.95361222E-01
   1.69000000E+00  2.74946366E-01  7.06056414E-01
   1.70000000E+00  2.82060207E-01  7.16703136E-01
   1.71000000E+00  2.89280245E-01  7.27294761E-01
   1.72000000E+00  2.96605896E-01  7.37824584E-01
   1.73000000E+00  3.04036508E-01  7.48285824E-01
   1.74000000E+00  3.11571361E-01  7.58671623E-01
   1.75000000E+00  3.19209666E-01  7.68975054E-01
   1.76000000E+00  3.26950564E-01  7.79189120E-01
   1.77000000E+00  3.34793127E-01  7.89306764E-01
   1.78000000E+00  3.42736354E-01  7.99320868E-01
   1.79000000E+00  3.50779175E-01  8.09224255E-01
   1.80000000E+00  3.58920446E-01  8.19009700E-01
   1.81000000E+00  3.67158952E-01  8.28669928E-01
   1.82000000E+00  3.75493403E-01  8.38197619E-01
   1.83000000E+00  3.83922438E-01  8.47585413E-01
   1.84000000E+00  3.92444620E-01  8.56825915E-01
   1.85000000E+00  4.01058441E-01  8.65911698E-01
   1.86000000E+00  4.09762314E-01  8.74835307E-01
   1.87000000E+00  4.18554581E-01  8.83589265E-01
   1.88000000E+00  4.27433509E-01  8.92166075E-01
   1.89000000E+00  4.36397287E-01  9.00558228E-01
   1.90000000E+00  4.45444033E-01  9.08758203E-01
   1.91000000E+00  4.54571786E-01  9.16758476E-01
   1.92000000E+00  4.63778511E-01  9.24551522E-01
   1.93000000E+00  4.73062100E-01  9.32129822E-01
   1.94000000E+00  4.82420367E-01  9.39485863E-01
   1.95000000E+00  4.91851052E-01  9.46612148E-01
   1.96000000E+00  5.01351819E-01  9.53501201E-01
   1.97000000E+00  5.10920260E-01  9.60145565E-01
   1.98000000E+00  5.20553890E-01  9.66537817E-01
   1.99000000E+00  5.30250151E-01  9.72670563E-01
   2.00000000E+00  5.40006412E-01  9.78536452E-01
   2.01000000E+00  5.49819966E-01  9.84128172E-01
   2.02000000E+00  5.59688037E-01  9.89438464E-01
   2.03000000E+00  5.69607774E-01  9.94460121E-01
   2.04000000E+00  5.79576254E-01  9.99185993E-01
   2.05000000E+00  5.89590484E-01  1.00360900E+00
   2.06000000E+00  5.99647401E-01  1.00772212E+00
   2.07000000E+00  6.09743870E-01  1.01151842E+00
   2.08000000E+00  6.19876690E-01  1.01499102E+00
   2.09000000E+00  6.30042589E-01  1.01813317E+00
   2.10000000E+00  6.40238229E-01  1.02093816E+00
   2.11000000E+00  6.50460206E-01  1.02339941E+00
   2.12000000E+00  6.60705050E-01  1.02551041E+00
   2.13000000E+00  6.70969226E-01  1.02726479E+00
   2.14000000E+00  6.81249136E-01  1.02865625E+00
   2.15000000E+00  6.91541121E-01  1.02967864E+00
   2.16000000E+00  7.01841459E-01  1.03032590E+00
   2.17000000E+00  7.12146369E-01  1.03059213E+00
   2.18000000E+00  7.22452012E-01  1.03047152E+00
   2.19000000E+00  7.32754491E-01  1.02995842E+00
   2.20000000E+00  7.43049853E-01  1.02904731E+00
   2.21000000E+00  7.53334092E-01  1.02773283E+00
   2.22000000E+00  7.63603148E-01  1.02600974E+00
   2.23000000E+00  7.73852908E-01  1.02387297E+00
   2.24000000E+00  7.84079212E-01  1.02131762E+00
   2.25000000E+00  7.94277850E-01  1.01833894E+00
   2.26000000E+00  8.04444564E-01  1.01493234E+00
   2.27000000E+00  8.14575055E-01  1.01109342E+00
   2.28000000E+00  8.24664977E-01  1.00681794E+00
   2.29000000E+00  8.34709945E-01  1.00210185E+00
   2.30000000E+00  8.44705533E-01  9.96941299E-01
   2.31000000E+00  8.54647277E-01  9.91332596E-01
   2.32000000E+00  8.64530679E-01  9.85272264E-01
   2.33000000E+00  8.74351206E-01  9.78757019E-01
   2.34000000E+00  8.84104293E-01  9.71783778E-01
   2.35000000E+00  8.93785346E-01  9.64349664E-01
   2.36000000E+00  9.03389741E-01  9.56452012E-01
   2.37000000E+00  9.12912832E-01  9.48088366E-01
   2.38000000E+00  9.22349948E-01  9.39256490E-01
   2.39000000E+00  9.31696395E-01  9.29954368E-01
   2.40000000E+00  9.40947462E-01  9.20180207E-01
   2.41000000E+00  9.50098420E-01  9.09932442E-01
   2.42000000E+00  9.59144527E-01  8.99209738E-01
   2.43000000E+00  9.68081028E-01  8.88010993E-01
   2.44000000E+00  9.76903158E-01  8.76335343E-01
   2.45000000E+00  9.85606143E-01  8.64182161E-01
   2.46000000E+00  9.94185208E-01  8.51551065E-01
   2.47000000E+00  1.00263557E+00  8.38441916E-01
   2.48000000E+00  1.01095245E+00  8.24854822E-01
   2.49000000E+00  1.01913108E+00  8.10790140E-01
   2.50000000E+00  1.02716667E+00  7.96248481E-01
   2.51000000E+00  1.03505446E+00  7.81230709E-01
   2.52000000E+00  1.04278970E+00  7.65737944E-01
   2.53000000E+00  1.05036764E+00  7.49771562E-01
   2.54000000E+00  1.05778355E+00  7.33333201E-01
   2.55000000E+00  1.06503274E+00  7.16424760E-01
   2.56000000E+00  1.07211049E+00  6.99048398E-01
   2.57000000E+00  1.07901215E+00  6.81206541E-01
   2.58000000E+00  1.08573308E+00  6.62901877E-01
   2.59000000E+00  1.09226866E+00  6.44137361E-01
   2.60000000E+00  1.09861430E+00  6.24916217E-01
   2.61000000E+00  1.10476547E+00  6.05241933E-01
   2.62000000E+00  1.11071764E+00  5.85118267E-01
   2.63000000E+00  1.11646635E+00  5.64549245E-01
   2.64000000E+00  1.12200716E+00  5.43539161E-01
   2.65000000E+00  1.12733568E+00  5.22092578E-01
   2.66000000E+00  1.13244757E+00  5.00214328E-01
   2.67000000E+00  1.13733854E+00  4.77909512E-01
   2.68000000E+00  1.14200436E+00  4.55183497E-01
   2.69000000E+00  1.14644083E+00  4.32041920E-01
   2.70000000E+00  1.15064383E+00  4.08490682E-01
   2.71000000E+00  1.15460930E+00  3.84535952E-01
   2.72000000E+00  1.15833323E+00  3.60184163E-01
   2.73000000E+00  1.16181168E+00  3.35442012E-01
   2.74000000E+00  1.16504079E+00  3.10316458E-01
   2.75000000E+00  1.16801675E+00  2.84814720E-01
   2.76000000E+00  1.17073585E+00  2.58944277E-01
   2.77000000E+00  1.17319444E+00  2.32712866E-01
   2.78000000E+00  1.17538893E+00  2.06128477E-01
   2.79000000E+00  1.17731586E+00  1.79199356E-01
   2.80000000E+00  1.17897180E+00  1.51933997E-01
   2.81000000E+00  1.18035345E+00  1.24341144E-01
   2.82000000E+00  1.18145756E+00  9.64297852E-02
   2.83000000E+00  1.18228101E+00  6.82091530E-02
   2.84000000E+00  1.18282074E+00  3.96887188E-02
   2.85000000E+00  1.18307382E+00  1.08781910E-02
   2.86000000E+00  1.18303737E+00 -1.82124889E-02
   2.87000000E+00  1.18270867E+00 -4.75731490E-02
   2.88000000E+00  1.18208505E+00 -7.71933914E-02
   2.89000000E+00  1.18116397E+00 -1.07062596E-01
   2.90000000E+00  1.17994300E+00 -1.37169922E-01
   2.91000000E+00  1.17841981E+00 -1.67504317E-01
   2.92000000E+00  1.17659220E+00 -1.98054516E-01
   2.93000000E+00  1.17445804E+00 -2.28809049E-01
   2.94000000E+00  1.17201537E+00 -2.59756243E-01
   2.95000000E+00  1.16926232E+00 -2.90884231E-01
   2.96000000E+00  1.16619712E+00 -3.22180950E-01
   2.97000000E+00  1.16281817E+00 -3.53634154E-01
   2.98000000E+00  1.15912396E+00 -3.85231411E-01
   2.99000000E+00  1.15511311E+00 -4.16960114E-01
   3.00000000E+00  1.15078436E+00 -4.48807486E-01
   3.01000000E+00  1.14613661E+00 -4.80760582E-01
   3.02000000E+00  1.14116884E+00 -5.12806296E-01
   3.03000000E+00  1.13588022E+00 -5.44931370E-01
   3.04000000E+00  1.13027000E+00 -5.77122394E-01
   3.05000000E+00  1.12433759E+00 -6.09365819E-01
   3.06000000E+00  1.11808255E+00 -6.41647955E-01
   3.07000000E+00  1.11150455E+00 -6.73954986E-01
   3.08000000E+00  1.10460341E+00 -7.06272968E-01
   3.09000000E+00  1.09737910E+00 -7.38587843E-01
   3.10000000E+00  1.08983172E+00 -7.70885438E-01
   3.11000000E+00  1.08196150E+00 -8.03151480E-01
   3.12000000E+00  1.07376884E+00 -8.35371594E-01
   3.13000000E+00  1.06525427E+00 -8.67531318E-01
   3.14000000E+00  1.05641846E+00 -8.99616105E-01
   3.15000000E+00  1.04726224E+00 -9.31611330E-01
   3.16000000E+00  1.03778658E+00 -9.63502299E-01
   3.17000000E+00  1.02799260E+00 -9.95274259E-01
   3.18000000E+00  1.01788154E+00 -1.02691240E+00
   3.19000000E+00  1.00745484E+00 -1.05840185E+00
   3.20000000E+00  9.96714052E-01 -1.08972773E+00
   3.21000000E+00  9.85660883E-01 -1.12087511E+00
   3.22000000E+00  9.74297195E-01 -1.15182901E+00
   3.23000000E+00  9.62624998E-01 -1.18257448E+00
   3.24000000E+00  9.50646450E-01 -1.21309653E+00
   3.25000000E+00  9.38363862E-01 -1.24338017E+00
   3.26000000E+00  9.25779691E-01 -1.27341043E+00
   3.27000000E+00  9.12896548E-01 -1.30317234E+00
   3.28000000E+00  8.99717189E-01 -1.33265096E+00
   3.29000000E+00  8.86244523E-01 -1.36183137E+00
   3.30000000E+00  8.72481605E-01 -1.39069870E+00
   3.31000000E+00  8.58431642E-01 -1.41923813E+00
   3.32000000E+00  8.44097985E-01 -1.44743486E+00
   3.33000000E+00  8.29484136E-01 -1.47527420E+00
   3.34000000E+00  8.14593741E-01 -1.50274150E+00
   3.35000000E+00  7.99430594E-01 -1.52982218E+00
   3.36000000E+00  7.83998634E-01 -1.55650178E+00
   3.37000000E+00  7.68301944E-01 -1.58276590E+00
   3.38000000E+00  7.52344749E-01 -1.60860026E+00
   3.39000000E+00  7.36131418E-01 -1.63399069E+00
   3.40000000E+00  7.19666462E-01 -1.65892313E+00
   3.41000000E+00  7.02954529E-01 -1.68338365E+00
   3.42000000E+00  6.86000408E-01 -1.70735846E+00
   3.43000000E+00  6.68809024E-01 -1.73083391E+00
   3.44000000E+00  6.51385439E-01 -1.75379649E+00
   3.45000000E+00  6.33734848E-01 -1.77623287E+00
   3.46000000E+00  6.15862580E-01 -1.79812986E+00
   3.47000000E+00  5.97774092E-01 -1.81947446E+00
   3.48000000E+00  5.79474975E-01 -1.84025385E+00
   3.49000000E+00  5.60970942E-01 -1.86045540E+00
   3.50000000E+00  5.42267834E-01 -1.88006667E+00
   3.51000000E+00  5.23371617E-01 -1.89907543E+00
   3.52000000E+00  5.04288374E-01 -1.91746967E+00
   3.53000000E+00  4.85024311E-01 -1.93523759E+00
   3.54000000E+00  4.65585748E-01 -1.95236762E+00
   3.55000000E+00  4.45979123E-01 -1.96884842E+00
   3.56000000E+00  4.26210981E-01 -1.98466889E+00
   3.57000000E+00  4.06287982E-01 -1.99981819E+00
   3.58000000E+00  3.86216890E-01 -2.01428574E+00
   3.59000000E+00  3.66004574E-01 -2.02806120E+00
   3.60000000E+00  3.45658006E-01 -2.04113452E+00
   3.61000000E+00  3.25184257E-01 -2.05349592E+00
   3.62000000E+00  3.04590493E-01 -2.06513590E+00
   3.63000000E+00  2.83883974E-01 -2.07604525E+00
   3.64000000E+00  2.63072053E-01 -2.08621506E+00
   3.65000000E+00  2.42162167E-01 -2.09563672E+00
   3.66000000E+00  2.21161840E-01 -2.10430192E+00
   3.67000000E+00  2.00078677E-01 -2.11220269E+00
   3.68000000E+00  1.78920360E-01 -2.11933135E+00
   3.69000000E+00  1.57694648E-01 -2.12568056E+00
   3.70000000E+00  1.36409370E-01 -2.13124330E+00
   3.71000000E+00  1.15072426E-01 -2.13601292E+00
   3.72000000E+00  9.36917769E-02 -2.13998307E+00
   3.73000000E+00  7.22754491E-02 -2.14314777E+00
   3.74000000E+00  5.08315251E-02 -2.14550139E+00
   3.75000000E+00  2.93681425E-02 -2.14703865E+00
   3.76000000E+00  7.89348977E-03 -2.14775464E+00
   3.77000000E+00 -1.35841974E-02 -2.14764481E+00
   3.78000000E+00 -3.50566396E-02 -2.14670498E+00
   3.79000000E+00 -5.65155176E-02 -2.14493134E+00
   3.80000000E+00 -7.79524757E-02 -2.14232048E+00
   3.81000000E+00 -9.93591263E-02 -2.13886935E+00
   3.82000000E+00 -1.20727053E-01 -2.13457529E+00
   3.83000000E+00 -1.42047815E-01 -2.12943603E+00
   3.84000000E+00 -1.63312950E-01 -2.12344969E+00
   3.85000000E+00 -1.84513980E-01 -2.11661480E+00
   3.86000000E+00 -2.05642414E-01 -2.10893026E+00
   3.87000000E+00 -2.26689751E-01 -2.10039539E+00
   3.88000000E+00 -2.47647486E-01 -2.09100991E+00
   3.89000000E+00 -2.68507114E-01 -2.08077395E+00
   3.90000000E+00 -2.89260132E-01 -2.06968802E+00
