 # Radial wave functions calculated by RADIAL.
 # **** Schrodinger Eq. Numerical potential.
 #      Input potential file: potential_1T2y.dat  
 #      Free state: E= 4.409917E-01, L=   2  (EPS= 1.0E-15)
 #        Inner phase shift= 4.626569465879102E-01
 #      Coulomb phase shift=-1.012183570167162E+00  (ETA=-1.064838E+00)
 #      Matching radius: RAD(  896)= 8.949999999999999E+00
 #       R              P(R)            Q(R)
   0.00000000E+00  0.00000000E+00  0.00000000E+00
   1.00000000E-02  9.03507634E-07  2.69275567E-04
   2.00000000E-02  7.08850125E-06  1.04957364E-03
   3.00000000E-02  2.34696198E-05  2.30237856E-03
   4.00000000E-02  5.45938647E-05  3.99262556E-03
   5.00000000E-02  1.04673520E-04  6.08838325E-03
   6.00000000E-02  1.77615924E-04  8.56054353E-03
   7.00000000E-02  2.77050218E-04  1.13825273E-02
   8.00000000E-02  4.06351246E-04  1.45300106E-02
   9.00000000E-02  5.68660834E-04  1.79806742E-02
   1.00000000E-01  7.66906688E-04  2.17139773E-02
   1.10000000E-01  1.00381914E-03  2.57109544E-02
   1.20000000E-01  1.28194599E-03  2.99540362E-02
   1.30000000E-01  1.60366565E-03  3.44268910E-02
   1.40000000E-01  1.97119883E-03  3.91142864E-02
   1.50000000E-01  2.38661891E-03  4.40019689E-02
   1.60000000E-01  2.85186115E-03  4.90765585E-02
   1.70000000E-01  3.36873104E-03  5.43254600E-02
   1.80000000E-01  3.93891169E-03  5.97367843E-02
   1.90000000E-01  4.56397057E-03  6.52992824E-02
   2.00000000E-01  5.24536563E-03  7.10022880E-02
   2.10000000E-01  5.98445086E-03  7.68356686E-02
   2.20000000E-01  6.78248141E-03  8.27897846E-02
   2.30000000E-01  7.64061835E-03  8.88554531E-02
   2.40000000E-01  8.55993308E-03  9.50239174E-02
   2.50000000E-01  9.54141145E-03  1.01286821E-01
   2.60000000E-01  1.05859577E-02  1.07636184E-01
   2.70000000E-01  1.16943979E-02  1.14064385E-01
   2.80000000E-01  1.28674838E-02  1.20564142E-01
   2.90000000E-01  1.41058960E-02  1.27128499E-01
   3.00000000E-01  1.54102470E-02  1.33750813E-01
   3.10000000E-01  1.67810843E-02  1.40424738E-01
   3.20000000E-01  1.82188935E-02  1.47144219E-01
   3.30000000E-01  1.97241012E-02  1.53903479E-01
   3.40000000E-01  2.12970773E-02  1.60697008E-01
   3.50000000E-01  2.29381381E-02  1.67519559E-01
   3.60000000E-01  2.46475486E-02  1.74366133E-01
   3.70000000E-01  2.64255250E-02  1.81231976E-01
   3.80000000E-01  2.82722372E-02  1.88112569E-01
   3.90000000E-01  3.01878112E-02  1.95003619E-01
   4.00000000E-01  3.21723309E-02  2.01901053E-01
   4.10000000E-01  3.42258406E-02  2.08801008E-01
   4.20000000E-01  3.63483472E-02  2.15699828E-01
   4.30000000E-01  3.85398218E-02  2.22594052E-01
   4.40000000E-01  4.08002020E-02  2.29480407E-01
   4.50000000E-01  4.31293934E-02  2.36355804E-01
   4.60000000E-01  4.55272718E-02  2.43217326E-01
   4.70000000E-01  4.79936845E-02  2.50062226E-01
   4.80000000E-01  5.05284523E-02  2.56887916E-01
   4.90000000E-01  5.31313707E-02  2.63691961E-01
   5.00000000E-01  5.58022117E-02  2.70472071E-01
   5.10000000E-01  5.85407251E-02  2.77226098E-01
   5.20000000E-01  6.13466400E-02  2.83952023E-01
   5.30000000E-01  6.42196656E-02  2.90647954E-01
   5.40000000E-01  6.71594932E-02  2.97312120E-01
   5.50000000E-01  7.01657966E-02  3.03942859E-01
   5.60000000E-01  7.32382337E-02  3.10538618E-01
   5.70000000E-01  7.63764475E-02  3.17097942E-01
   5.80000000E-01  7.95800666E-02  3.23619475E-01
   5.90000000E-01  8.28487068E-02  3.30101945E-01
   6.00000000E-01  8.61819713E-02  3.36544163E-01
   6.10000000E-01  8.95794522E-02  3.42945021E-01
   6.20000000E-01  9.30407304E-02  3.49303477E-01
   6.30000000E-01  9.65653771E-02  3.55618560E-01
   6.40000000E-01  1.00152954E-01  3.61889360E-01
   6.50000000E-01  1.03803014E-01  3.68115023E-01
   6.60000000E-01  1.07515101E-01  3.74294750E-01
   6.70000000E-01  1.11288753E-01  3.80427787E-01
   6.80000000E-01  1.15123499E-01  3.86513424E-01
   6.90000000E-01  1.19018861E-01  3.92550991E-01
   7.00000000E-01  1.22974357E-01  3.98539854E-01
   7.10000000E-01  1.26989494E-01  4.04479409E-01
   7.20000000E-01  1.31063778E-01  4.10369082E-01
   7.30000000E-01  1.35196708E-01  4.16208323E-01
   7.40000000E-01  1.39387775E-01  4.21996603E-01
   7.50000000E-01  1.43636468E-01  4.27733409E-01
   7.60000000E-01  1.47942270E-01  4.33418247E-01
   7.70000000E-01  1.52304658E-01  4.39050633E-01
   7.80000000E-01  1.56723106E-01  4.44630092E-01
   7.90000000E-01  1.61197082E-01  4.50156160E-01
   8.00000000E-01  1.65726050E-01  4.55628369E-01
   8.10000000E-01  1.70309468E-01  4.61046260E-01
   8.20000000E-01  1.74946792E-01  4.66409373E-01
   8.30000000E-01  1.79637472E-01  4.71717247E-01
   8.40000000E-01  1.84380952E-01  4.76969414E-01
   8.50000000E-01  1.89176673E-01  4.82165399E-01
   8.60000000E-01  1.94024071E-01  4.87304725E-01
   8.70000000E-01  1.98922577E-01  4.92386901E-01
   8.80000000E-01  2.03871617E-01  4.97411427E-01
   8.90000000E-01  2.08870611E-01  5.02377792E-01
   9.00000000E-01  2.13918977E-01  5.07285469E-01
   9.10000000E-01  2.19016123E-01  5.12133919E-01
   9.20000000E-01  2.24161456E-01  5.16922584E-01
   9.30000000E-01  2.29354374E-01  5.21650894E-01
   9.40000000E-01  2.34594271E-01  5.26318257E-01
   9.50000000E-01  2.39880534E-01  5.30924064E-01
   9.60000000E-01  2.45212545E-01  5.35467690E-01
   9.70000000E-01  2.50589678E-01  5.39948482E-01
   9.80000000E-01  2.56011303E-01  5.44365770E-01
   9.90000000E-01  2.61476780E-01  5.48718867E-01
   1.00000000E+00  2.66985464E-01  5.53007060E-01
   1.01000000E+00  2.72536702E-01  5.57229615E-01
   1.02000000E+00  2.78129835E-01  5.61385777E-01
   1.03000000E+00  2.83764194E-01  5.65474762E-01
   1.04000000E+00  2.89439103E-01  5.69495777E-01
   1.05000000E+00  2.95153880E-01  5.73447978E-01
   1.06000000E+00  3.00907831E-01  5.77330523E-01
   1.07000000E+00  3.06700255E-01  5.81142538E-01
   1.08000000E+00  3.12530443E-01  5.84883125E-01
   1.09000000E+00  3.18397677E-01  5.88551363E-01
   1.10000000E+00  3.24301226E-01  5.92146305E-01
   1.11000000E+00  3.30240355E-01  5.95666983E-01
   1.12000000E+00  3.36214315E-01  5.99112404E-01
   1.13000000E+00  3.42222349E-01  6.02481552E-01
   1.14000000E+00  3.48263689E-01  6.05773388E-01
   1.15000000E+00  3.54337555E-01  6.08986848E-01
   1.16000000E+00  3.60443161E-01  6.12120848E-01
   1.17000000E+00  3.66579704E-01  6.15174281E-01
   1.18000000E+00  3.72746374E-01  6.18146018E-01
   1.19000000E+00  3.78942348E-01  6.21034907E-01
   1.20000000E+00  3.85166792E-01  6.23839774E-01
   1.21000000E+00  3.91418859E-01  6.26559428E-01
   1.22000000E+00  3.97697692E-01  6.29192656E-01
   1.23000000E+00  4.04002420E-01  6.31738222E-01
   1.24000000E+00  4.10332161E-01  6.34194875E-01
   1.25000000E+00  4.16686017E-01  6.36561341E-01
   1.26000000E+00  4.23063082E-01  6.38836333E-01
   1.27000000E+00  4.29462435E-01  6.41018540E-01
   1.28000000E+00  4.35883140E-01  6.43106642E-01
   1.29000000E+00  4.42324249E-01  6.45099294E-01
   1.30000000E+00  4.48784803E-01  6.46995142E-01
   1.31000000E+00  4.55263825E-01  6.48792812E-01
   1.32000000E+00  4.61760327E-01  6.50490921E-01
   1.33000000E+00  4.68273307E-01  6.52088068E-01
   1.34000000E+00  4.74801747E-01  6.53582840E-01
   1.35000000E+00  4.81344618E-01  6.54973813E-01
   1.36000000E+00  4.87900873E-01  6.56259552E-01
   1.37000000E+00  4.94469453E-01  6.57438614E-01
   1.38000000E+00  5.01049285E-01  6.58509542E-01
   1.39000000E+00  5.07639279E-01  6.59470869E-01
   1.40000000E+00  5.14238332E-01  6.60321127E-01
   1.41000000E+00  5.20845326E-01  6.61058838E-01
   1.42000000E+00  5.27459128E-01  6.61682514E-01
   1.43000000E+00  5.34078591E-01  6.62190668E-01
   1.44000000E+00  5.40702552E-01  6.62581804E-01
   1.45000000E+00  5.47329832E-01  6.62854425E-01
   1.46000000E+00  5.53959240E-01  6.63007033E-01
   1.47000000E+00  5.60589568E-01  6.63038127E-01
   1.48000000E+00  5.67219593E-01  6.62946207E-01
   1.49000000E+00  5.73848077E-01  6.62729768E-01
   1.50000000E+00  5.80473768E-01  6.62387314E-01
   1.51000000E+00  5.87095398E-01  6.61917348E-01
   1.52000000E+00  5.93711685E-01  6.61318379E-01
   1.53000000E+00  6.00321331E-01  6.60588918E-01
   1.54000000E+00  6.06923023E-01  6.59727482E-01
   1.55000000E+00  6.13515436E-01  6.58732599E-01
   1.56000000E+00  6.20097226E-01  6.57602801E-01
   1.57000000E+00  6.26667037E-01  6.56336628E-01
   1.58000000E+00  6.33223499E-01  6.54932634E-01
   1.59000000E+00  6.39765225E-01  6.53389379E-01
   1.60000000E+00  6.46290817E-01  6.51705441E-01
   1.61000000E+00  6.52798861E-01  6.49879408E-01
   1.62000000E+00  6.59287927E-01  6.47909885E-01
   1.63000000E+00  6.65756575E-01  6.45795489E-01
   1.64000000E+00  6.72203350E-01  6.43534858E-01
   1.65000000E+00  6.78626781E-01  6.41126643E-01
   1.66000000E+00  6.85025386E-01  6.38569518E-01
   1.67000000E+00  6.91397670E-01  6.35862175E-01
   1.68000000E+00  6.97742125E-01  6.33003326E-01
   1.69000000E+00  7.04057228E-01  6.29991709E-01
   1.70000000E+00  7.10341445E-01  6.26826085E-01
   1.71000000E+00  7.16593232E-01  6.23505234E-01
   1.72000000E+00  7.22811029E-01  6.20027971E-01
   1.73000000E+00  7.28993266E-01  6.16393129E-01
   1.74000000E+00  7.35138362E-01  6.12599575E-01
   1.75000000E+00  7.41244725E-01  6.08646202E-01
   1.76000000E+00  7.47310750E-01  6.04531935E-01
   1.77000000E+00  7.53334824E-01  6.00255730E-01
   1.78000000E+00  7.59315321E-01  5.95816574E-01
   1.79000000E+00  7.65250609E-01  5.91213491E-01
   1.80000000E+00  7.71139042E-01  5.86445534E-01
   1.81000000E+00  7.76978967E-01  5.81511798E-01
   1.82000000E+00  7.82768722E-01  5.76411413E-01
   1.83000000E+00  7.88506637E-01  5.71143547E-01
   1.84000000E+00  7.94191032E-01  5.65707406E-01
   1.85000000E+00  7.99820221E-01  5.60102236E-01
   1.86000000E+00  8.05392511E-01  5.54327330E-01
   1.87000000E+00  8.10906200E-01  5.48382014E-01
   1.88000000E+00  8.16359581E-01  5.42265665E-01
   1.89000000E+00  8.21750941E-01  5.35977701E-01
   1.90000000E+00  8.27078561E-01  5.29517587E-01
   1.91000000E+00  8.32340717E-01  5.22884833E-01
   1.92000000E+00  8.37535681E-01  5.16078998E-01
   1.93000000E+00  8.42661719E-01  5.09099690E-01
   1.94000000E+00  8.47717095E-01  5.01946565E-01
   1.95000000E+00  8.52700070E-01  4.94619332E-01
   1.96000000E+00  8.57608901E-01  4.87117749E-01
   1.97000000E+00  8.62441843E-01  4.79441627E-01
   1.98000000E+00  8.67197151E-01  4.71590829E-01
   1.99000000E+00  8.71873077E-01  4.63565277E-01
   2.00000000E+00  8.76467874E-01  4.55364942E-01
   2.01000000E+00  8.80979794E-01  4.46989858E-01
   2.02000000E+00  8.85407089E-01  4.38440109E-01
   2.03000000E+00  8.89748014E-01  4.29715840E-01
   2.04000000E+00  8.94000825E-01  4.20817257E-01
   2.05000000E+00  8.98163779E-01  4.11744623E-01
   2.06000000E+00  9.02235138E-01  4.02498258E-01
   2.07000000E+00  9.06213166E-01  3.93078550E-01
   2.08000000E+00  9.10096133E-01  3.83485871E-01
   2.09000000E+00  9.13882590E-01  3.73804911E-01
   2.10000000E+00  9.17572218E-01  3.64120247E-01
   2.11000000E+00  9.21164983E-01  3.54432145E-01
   2.12000000E+00  9.24660851E-01  3.44740930E-01
   2.13000000E+00  9.28059792E-01  3.35046930E-01
   2.14000000E+00  9.31361781E-01  3.25350461E-01
   2.15000000E+00  9.34566795E-01  3.15651845E-01
   2.16000000E+00  9.37674812E-01  3.05951396E-01
   2.17000000E+00  9.40685817E-01  2.96249434E-01
   2.18000000E+00  9.43599797E-01  2.86546270E-01
   2.19000000E+00  9.46416740E-01  2.76842220E-01
   2.20000000E+00  9.49136639E-01  2.67137597E-01
   2.21000000E+00  9.51759491E-01  2.57432717E-01
   2.22000000E+00  9.54285294E-01  2.47727895E-01
   2.23000000E+00  9.56714050E-01  2.38023450E-01
   2.24000000E+00  9.59045765E-01  2.28319701E-01
   2.25000000E+00  9.61280448E-01  2.18616968E-01
   2.26000000E+00  9.63418109E-01  2.08915576E-01
   2.27000000E+00  9.65458765E-01  1.99215852E-01
   2.28000000E+00  9.67402433E-01  1.89518128E-01
   2.29000000E+00  9.69249135E-01  1.79822737E-01
   2.30000000E+00  9.70998896E-01  1.70130016E-01
   2.31000000E+00  9.72651745E-01  1.60440307E-01
   2.32000000E+00  9.74207714E-01  1.50753959E-01
   2.33000000E+00  9.75666837E-01  1.41071322E-01
   2.34000000E+00  9.77029154E-01  1.31392753E-01
   2.35000000E+00  9.78294707E-01  1.21718613E-01
   2.36000000E+00  9.79463542E-01  1.12049270E-01
   2.37000000E+00  9.80535709E-01  1.02385098E-01
   2.38000000E+00  9.81511262E-01  9.27264723E-02
   2.39000000E+00  9.82390258E-01  8.30737799E-02
   2.40000000E+00  9.83172759E-01  7.34274115E-02
   2.41000000E+00  9.83858829E-01  6.37877625E-02
   2.42000000E+00  9.84448538E-01  5.41552396E-02
   2.43000000E+00  9.84941959E-01  4.45302516E-02
   2.44000000E+00  9.85339170E-01  3.49132155E-02
   2.45000000E+00  9.85640251E-01  2.53045567E-02
   2.46000000E+00  9.85845290E-01  1.57047024E-02
   2.47000000E+00  9.85954376E-01  6.11409270E-03
   2.48000000E+00  9.85967604E-01 -3.46682712E-03
   2.49000000E+00  9.85885073E-01 -1.30376071E-02
   2.50000000E+00  9.85706887E-01 -2.25977868E-02
   2.51000000E+00  9.85433155E-01 -3.21469000E-02
   2.52000000E+00  9.85063988E-01 -4.16844715E-02
   2.53000000E+00  9.84599505E-01 -5.12100237E-02
   2.54000000E+00  9.84039829E-01 -6.07230650E-02
   2.55000000E+00  9.83385087E-01 -7.02231025E-02
   2.56000000E+00  9.82635412E-01 -7.97096309E-02
   2.57000000E+00  9.81790941E-01 -8.91821421E-02
   2.58000000E+00  9.80851818E-01 -9.86401181E-02
   2.59000000E+00  9.79818189E-01 -1.08083034E-01
   2.60000000E+00  9.78690209E-01 -1.17510355E-01
   2.61000000E+00  9.77468036E-01 -1.26921546E-01
   2.62000000E+00  9.76151834E-01 -1.36316058E-01
   2.63000000E+00  9.74741772E-01 -1.45693338E-01
   2.64000000E+00  9.73238026E-01 -1.55052826E-01
   2.65000000E+00  9.71640777E-01 -1.64393955E-01
   2.66000000E+00  9.69950210E-01 -1.73716148E-01
   2.67000000E+00  9.68166519E-01 -1.83018827E-01
   2.68000000E+00  9.66289901E-01 -1.92301402E-01
   2.69000000E+00  9.64320560E-01 -2.01563280E-01
   2.70000000E+00  9.62258706E-01 -2.10803856E-01
   2.71000000E+00  9.60104556E-01 -2.20022525E-01
   2.72000000E+00  9.57858331E-01 -2.29218672E-01
   2.73000000E+00  9.55520259E-01 -2.38391676E-01
   2.74000000E+00  9.53090576E-01 -2.47540913E-01
   2.75000000E+00  9.50569523E-01 -2.56665747E-01
   2.76000000E+00  9.47957345E-01 -2.65765541E-01
   2.77000000E+00  9.45254297E-01 -2.74839649E-01
   2.78000000E+00  9.42460640E-01 -2.83887421E-01
   2.79000000E+00  9.39576639E-01 -2.92908204E-01
   2.80000000E+00  9.36602568E-01 -3.01901334E-01
   2.81000000E+00  9.33538707E-01 -3.10866147E-01
   2.82000000E+00  9.30385342E-01 -3.19801970E-01
   2.83000000E+00  9.27142766E-01 -3.28708127E-01
   2.84000000E+00  9.23811280E-01 -3.37583935E-01
   2.85000000E+00  9.20391191E-01 -3.46428710E-01
   2.86000000E+00  9.16882812E-01 -3.55241762E-01
   2.87000000E+00  9.13286464E-01 -3.64022395E-01
   2.88000000E+00  9.09602474E-01 -3.72769908E-01
   2.89000000E+00  9.05831178E-01 -3.81483599E-01
   2.90000000E+00  9.01972917E-01 -3.90162761E-01
   2.91000000E+00  8.98028040E-01 -3.98806683E-01
   2.92000000E+00  8.93996903E-01 -4.07414651E-01
   2.93000000E+00  8.89879870E-01 -4.15985947E-01
   2.94000000E+00  8.85677309E-01 -4.24519849E-01
   2.95000000E+00  8.81389600E-01 -4.33015631E-01
   2.96000000E+00  8.77017126E-01 -4.41472570E-01
   2.97000000E+00  8.72560280E-01 -4.49889933E-01
   2.98000000E+00  8.68019462E-01 -4.58266987E-01
   2.99000000E+00  8.63395077E-01 -4.66602999E-01
   3.00000000E+00  8.58687541E-01 -4.74897232E-01
   3.01000000E+00  8.53897274E-01 -4.83148946E-01
   3.02000000E+00  8.49024706E-01 -4.91357400E-01
   3.03000000E+00  8.44070273E-01 -4.99521851E-01
   3.04000000E+00  8.39034418E-01 -5.07641557E-01
   3.05000000E+00  8.33917594E-01 -5.15715771E-01
   3.06000000E+00  8.28720257E-01 -5.23743747E-01
   3.07000000E+00  8.23442875E-01 -5.31724736E-01
   3.08000000E+00  8.18085922E-01 -5.39657991E-01
   3.09000000E+00  8.12649877E-01 -5.47542762E-01
   3.10000000E+00  8.07135230E-01 -5.55378301E-01
   3.11000000E+00  8.01542478E-01 -5.63163858E-01
   3.12000000E+00  7.95872122E-01 -5.70898684E-01
   3.13000000E+00  7.90124676E-01 -5.78582023E-01
   3.14000000E+00  7.84300656E-01 -5.86213140E-01
   3.15000000E+00  7.78400589E-01 -5.93791273E-01
   3.16000000E+00  7.72425010E-01 -6.01315681E-01
   3.17000000E+00  7.66374457E-01 -6.08785617E-01
   3.18000000E+00  7.60249481E-01 -6.16200334E-01
   3.19000000E+00  7.54050637E-01 -6.23559085E-01
   3.20000000E+00  7.47778489E-01 -6.30861125E-01
   3.21000000E+00  7.41433606E-01 -6.38105715E-01
   3.22000000E+00  7.35016568E-01 -6.45292114E-01
   3.23000000E+00  7.28527960E-01 -6.52419585E-01
   3.24000000E+00  7.21968376E-01 -6.59487389E-01
   3.25000000E+00  7.15338414E-01 -6.66494794E-01
   3.26000000E+00  7.08638683E-01 -6.73441070E-01
   3.27000000E+00  7.01869799E-01 -6.80325487E-01
   3.28000000E+00  6.95032382E-01 -6.87147317E-01
   3.29000000E+00  6.88127063E-01 -6.93905837E-01
   3.30000000E+00  6.81154479E-01 -7.00600330E-01
   3.31000000E+00  6.74115273E-01 -7.07230077E-01
   3.32000000E+00  6.67010096E-01 -7.13794366E-01
   3.33000000E+00  6.59839606E-01 -7.20292487E-01
   3.34000000E+00  6.52604469E-01 -7.26723733E-01
   3.35000000E+00  6.45305357E-01 -7.33087402E-01
   3.36000000E+00  6.37942948E-01 -7.39382797E-01
   3.37000000E+00  6.30517930E-01 -7.45609222E-01
   3.38000000E+00  6.23030996E-01 -7.51765989E-01
   3.39000000E+00  6.15482845E-01 -7.57852415E-01
   3.40000000E+00  6.07874185E-01 -7.63867820E-01
   3.41000000E+00  6.00205728E-01 -7.69811529E-01
   3.42000000E+00  5.92478195E-01 -7.75682871E-01
   3.43000000E+00  5.84692314E-01 -7.81481181E-01
   3.44000000E+00  5.76848817E-01 -7.87205801E-01
   3.45000000E+00  5.68948446E-01 -7.92856076E-01
   3.46000000E+00  5.60991946E-01 -7.98431359E-01
   3.47000000E+00  5.52980071E-01 -8.03931006E-01
   3.48000000E+00  5.44913580E-01 -8.09354381E-01
   3.49000000E+00  5.36793239E-01 -8.14700854E-01
   3.50000000E+00  5.28619821E-01 -8.19969802E-01
   3.51000000E+00  5.20394104E-01 -8.25160604E-01
   3.52000000E+00  5.12116872E-01 -8.30272651E-01
   3.53000000E+00  5.03788915E-01 -8.35305338E-01
   3.54000000E+00  4.95411031E-01 -8.40258066E-01
   3.55000000E+00  4.86984022E-01 -8.45130246E-01
   3.56000000E+00  4.78508697E-01 -8.49921293E-01
   3.57000000E+00  4.69985869E-01 -8.54630629E-01
   3.58000000E+00  4.61416359E-01 -8.59257684E-01
   3.59000000E+00  4.52800991E-01 -8.63801897E-01
   3.60000000E+00  4.44140599E-01 -8.68262714E-01
   3.61000000E+00  4.35436017E-01 -8.72639585E-01
   3.62000000E+00  4.26688088E-01 -8.76931973E-01
   3.63000000E+00  4.17897661E-01 -8.81139345E-01
   3.64000000E+00  4.09065587E-01 -8.85261178E-01
   3.65000000E+00  4.00192724E-01 -8.89296957E-01
   3.66000000E+00  3.91279936E-01 -8.93246173E-01
   3.67000000E+00  3.82328091E-01 -8.97108329E-01
   3.68000000E+00  3.73338061E-01 -9.00882934E-01
   3.69000000E+00  3.64310726E-01 -9.04569506E-01
   3.70000000E+00  3.55246966E-01 -9.08167570E-01
   3.71000000E+00  3.46147671E-01 -9.11676664E-01
   3.72000000E+00  3.37013731E-01 -9.15096332E-01
   3.73000000E+00  3.27846044E-01 -9.18426125E-01
   3.74000000E+00  3.18645510E-01 -9.21665606E-01
   3.75000000E+00  3.09413034E-01 -9.24814347E-01
   3.76000000E+00  3.00149527E-01 -9.27871927E-01
   3.77000000E+00  2.90855901E-01 -9.30837937E-01
   3.78000000E+00  2.81533074E-01 -9.33711976E-01
   3.79000000E+00  2.72181969E-01 -9.36493652E-01
   3.80000000E+00  2.62803510E-01 -9.39182584E-01
   3.81000000E+00  2.53398628E-01 -9.41778398E-01
   3.82000000E+00  2.43968254E-01 -9.44280732E-01
   3.83000000E+00  2.34513326E-01 -9.46689235E-01
   3.84000000E+00  2.25034783E-01 -9.49003563E-01
   3.85000000E+00  2.15533570E-01 -9.51223382E-01
   3.86000000E+00  2.06010632E-01 -9.53348370E-01
   3.87000000E+00  1.96466919E-01 -9.55378215E-01
   3.88000000E+00  1.86903386E-01 -9.57312612E-01
   3.89000000E+00  1.77320986E-01 -9.59151269E-01
   3.90000000E+00  1.67720680E-01 -9.60893905E-01
