 # Radial wave functions calculated by RADIAL.
 # **** Schrodinger Eq. Numerical potential.
 #      Input potential file: potential_1T2z.dat  
 #      Free state: E= 2.719449E+00, L=   4  (EPS= 1.0E-15)
 #        Inner phase shift= 2.146405967641507E-01
 #      Coulomb phase shift=-6.464649128064384E-01  (ETA=-4.288015E-01)
 #      Matching radius: RAD(  932)= 9.310000000000000E+00
 #       R              P(R)            Q(R)
   0.00000000E+00  0.00000000E+00  0.00000000E+00
   1.00000000E-02  2.74252031E-11  1.36802247E-08
   2.00000000E-02  8.67390752E-10  2.15840441E-07
   3.00000000E-02  6.51132375E-09  1.07778314E-06
   4.00000000E-02  2.71295603E-08  3.36070983E-06
   5.00000000E-02  8.18751259E-08  8.09698330E-06
   6.00000000E-02  2.01508858E-07  1.65730933E-05
   7.00000000E-02  4.30861698E-07  3.03140851E-05
   8.00000000E-02  8.31147632E-07  5.10692257E-05
   9.00000000E-02  1.48213863E-06  8.07987042E-05
   1.00000000E-01  2.48421099E-06  1.21661187E-04
   1.10000000E-01  3.96027090E-06  1.76002079E-04
   1.20000000E-01  6.05756552E-06  2.46342352E-04
   1.30000000E-01  8.94938487E-06  3.35367856E-04
   1.40000000E-01  1.28366587E-05  4.45919002E-04
   1.50000000E-01  1.79494520E-05  5.80980776E-04
   1.60000000E-01  2.45483619E-05  7.43673015E-04
   1.70000000E-01  3.29258183E-05  9.37240909E-04
   1.80000000E-01  4.34072912E-05  1.16504572E-03
   1.90000000E-01  5.63524056E-05  1.43055566E-03
   2.00000000E-01  7.21559658E-05  1.73733697E-03
   2.10000000E-01  9.12488923E-05  2.08904514E-03
   2.20000000E-01  1.14099071E-04  2.48941629E-03
   2.30000000E-01  1.41212115E-04  2.94225871E-03
   2.40000000E-01  1.73132050E-04  3.45144460E-03
   2.50000000E-01  2.10441907E-04  4.02090190E-03
   2.60000000E-01  2.53764241E-04  4.65460633E-03
   2.70000000E-01  3.03761573E-04  5.35657365E-03
   2.80000000E-01  3.61136748E-04  6.13085198E-03
   2.90000000E-01  4.26633224E-04  6.98151437E-03
   3.00000000E-01  5.01035283E-04  7.91265158E-03
   3.10000000E-01  5.85168175E-04  8.92836490E-03
   3.20000000E-01  6.79898185E-04  1.00327593E-02
   3.30000000E-01  7.86132639E-04  1.12299367E-02
   3.40000000E-01  9.04819839E-04  1.25239894E-02
   3.50000000E-01  1.03694894E-03  1.39189938E-02
   3.60000000E-01  1.18354974E-03  1.54190040E-02
   3.70000000E-01  1.34569246E-03  1.70280458E-02
   3.80000000E-01  1.52448740E-03  1.87501112E-02
   3.90000000E-01  1.72108460E-03  2.05891521E-02
   4.00000000E-01  1.93667339E-03  2.25490752E-02
   4.10000000E-01  2.17248191E-03  2.46337365E-02
   4.20000000E-01  2.42977659E-03  2.68469360E-02
   4.30000000E-01  2.70986156E-03  2.91924125E-02
   4.40000000E-01  3.01407801E-03  3.16738389E-02
   4.50000000E-01  3.34380352E-03  3.42948172E-02
   4.60000000E-01  3.70045129E-03  3.70588738E-02
   4.70000000E-01  4.08546942E-03  3.99694550E-02
   4.80000000E-01  4.50034002E-03  4.30299225E-02
   4.90000000E-01  4.94657841E-03  4.62435489E-02
   5.00000000E-01  5.42573214E-03  4.96135137E-02
   5.10000000E-01  5.93938010E-03  5.31428990E-02
   5.20000000E-01  6.48913147E-03  5.68346856E-02
   5.30000000E-01  7.07662474E-03  6.06917485E-02
   5.40000000E-01  7.70352660E-03  6.47168541E-02
   5.50000000E-01  8.37153082E-03  6.89126556E-02
   5.60000000E-01  9.08235716E-03  7.32816895E-02
   5.70000000E-01  9.83775012E-03  7.78263719E-02
   5.80000000E-01  1.06394778E-02  8.25489951E-02
   5.90000000E-01  1.14893304E-02  8.74517241E-02
   6.00000000E-01  1.23891194E-02  9.25365936E-02
   6.10000000E-01  1.33406757E-02  9.78055043E-02
   6.20000000E-01  1.43458488E-02  1.03260219E-01
   6.30000000E-01  1.54065049E-02  1.08902361E-01
   6.40000000E-01  1.65245258E-02  1.14733409E-01
   6.50000000E-01  1.77018072E-02  1.20754697E-01
   6.60000000E-01  1.89402578E-02  1.26967407E-01
   6.70000000E-01  2.02417969E-02  1.33372572E-01
   6.80000000E-01  2.16083537E-02  1.39971067E-01
   6.90000000E-01  2.30418651E-02  1.46763609E-01
   7.00000000E-01  2.45442746E-02  1.53750756E-01
   7.10000000E-01  2.61175302E-02  1.60932901E-01
   7.20000000E-01  2.77635834E-02  1.68310273E-01
   7.30000000E-01  2.94843867E-02  1.75882931E-01
   7.40000000E-01  3.12818926E-02  1.83650765E-01
   7.50000000E-01  3.31580516E-02  1.91613488E-01
   7.60000000E-01  3.51148105E-02  1.99770641E-01
   7.70000000E-01  3.71541104E-02  2.08121587E-01
   7.80000000E-01  3.92778855E-02  2.16665510E-01
   7.90000000E-01  4.14880606E-02  2.25401408E-01
   8.00000000E-01  4.37865496E-02  2.34328101E-01
   8.10000000E-01  4.61752540E-02  2.43444218E-01
   8.20000000E-01  4.86560603E-02  2.52748206E-01
   8.30000000E-01  5.12308386E-02  2.62238318E-01
   8.40000000E-01  5.39014406E-02  2.71912618E-01
   8.50000000E-01  5.66696978E-02  2.81768978E-01
   8.60000000E-01  5.95374193E-02  2.91805076E-01
   8.70000000E-01  6.25063901E-02  3.02018395E-01
   8.80000000E-01  6.55783689E-02  3.12406221E-01
   8.90000000E-01  6.87550865E-02  3.22965646E-01
   9.00000000E-01  7.20382435E-02  3.33693559E-01
   9.10000000E-01  7.54295083E-02  3.44586652E-01
   9.20000000E-01  7.89305155E-02  3.55641417E-01
   9.30000000E-01  8.25428632E-02  3.66854144E-01
   9.40000000E-01  8.62681119E-02  3.78220923E-01
   9.50000000E-01  9.01077815E-02  3.89737642E-01
   9.60000000E-01  9.40633501E-02  4.01399985E-01
   9.70000000E-01  9.81362516E-02  4.13203437E-01
   9.80000000E-01  1.02327874E-01  4.25143279E-01
   9.90000000E-01  1.06639555E-01  4.37214588E-01
   1.00000000E+00  1.11072586E-01  4.49412242E-01
   1.01000000E+00  1.15628204E-01  4.61730915E-01
   1.02000000E+00  1.20307590E-01  4.74165081E-01
   1.03000000E+00  1.25111871E-01  4.86709012E-01
   1.04000000E+00  1.30042116E-01  4.99356781E-01
   1.05000000E+00  1.35099333E-01  5.12102264E-01
   1.06000000E+00  1.40284466E-01  5.24939137E-01
   1.07000000E+00  1.45598398E-01  5.37860879E-01
   1.08000000E+00  1.51041944E-01  5.50860776E-01
   1.09000000E+00  1.56615851E-01  5.63931918E-01
   1.10000000E+00  1.62320796E-01  5.77067204E-01
   1.11000000E+00  1.68157385E-01  5.90259344E-01
   1.12000000E+00  1.74126148E-01  6.03500859E-01
   1.13000000E+00  1.80227541E-01  6.16784084E-01
   1.14000000E+00  1.86461942E-01  6.30101170E-01
   1.15000000E+00  1.92829651E-01  6.43444087E-01
   1.16000000E+00  1.99330883E-01  6.56804631E-01
   1.17000000E+00  2.05965774E-01  6.70174416E-01
   1.18000000E+00  2.12734374E-01  6.83544887E-01
   1.19000000E+00  2.19636645E-01  6.96907322E-01
   1.20000000E+00  2.26672464E-01  7.10252831E-01
   1.21000000E+00  2.33841615E-01  7.23572362E-01
   1.22000000E+00  2.41143794E-01  7.36856705E-01
   1.23000000E+00  2.48578601E-01  7.50096497E-01
   1.24000000E+00  2.56145543E-01  7.63282222E-01
   1.25000000E+00  2.63844033E-01  7.76404221E-01
   1.26000000E+00  2.71673383E-01  7.89452693E-01
   1.27000000E+00  2.79632808E-01  8.02417700E-01
   1.28000000E+00  2.87721425E-01  8.15289172E-01
   1.29000000E+00  2.95938246E-01  8.28056914E-01
   1.30000000E+00  3.04282183E-01  8.40710606E-01
   1.31000000E+00  3.12752043E-01  8.53239816E-01
   1.32000000E+00  3.21346529E-01  8.65633999E-01
   1.33000000E+00  3.30064238E-01  8.77882506E-01
   1.34000000E+00  3.38903658E-01  8.89974588E-01
   1.35000000E+00  3.47863172E-01  9.01899406E-01
   1.36000000E+00  3.56941052E-01  9.13646033E-01
   1.37000000E+00  3.66135462E-01  9.25203461E-01
   1.38000000E+00  3.75444454E-01  9.36560611E-01
   1.39000000E+00  3.84865969E-01  9.47706336E-01
   1.40000000E+00  3.94397838E-01  9.58629428E-01
   1.41000000E+00  4.04037778E-01  9.69318631E-01
   1.42000000E+00  4.13783394E-01  9.79762641E-01
   1.43000000E+00  4.23632176E-01  9.89950115E-01
   1.44000000E+00  4.33581503E-01  9.99869684E-01
   1.45000000E+00  4.43628639E-01  1.00950995E+00
   1.46000000E+00  4.53770733E-01  1.01885952E+00
   1.47000000E+00  4.64004822E-01  1.02790696E+00
   1.48000000E+00  4.74327827E-01  1.03664087E+00
   1.49000000E+00  4.84736556E-01  1.04504984E+00
   1.50000000E+00  4.95227703E-01  1.05312250E+00
   1.51000000E+00  5.05797847E-01  1.06084748E+00
   1.52000000E+00  5.16443456E-01  1.06821346E+00
   1.53000000E+00  5.27160882E-01  1.07520918E+00
   1.54000000E+00  5.37946368E-01  1.08182341E+00
   1.55000000E+00  5.48796041E-01  1.08804498E+00
   1.56000000E+00  5.59705922E-01  1.09386283E+00
   1.57000000E+00  5.70671916E-01  1.09926593E+00
   1.58000000E+00  5.81689821E-01  1.10424338E+00
   1.59000000E+00  5.92755328E-01  1.10878435E+00
   1.60000000E+00  6.03864018E-01  1.11287816E+00
   1.61000000E+00  6.15011365E-01  1.11651420E+00
   1.62000000E+00  6.26192741E-01  1.11968202E+00
   1.63000000E+00  6.37403411E-01  1.12237130E+00
   1.64000000E+00  6.48638538E-01  1.12457188E+00
   1.65000000E+00  6.59893186E-01  1.12627374E+00
   1.66000000E+00  6.71162318E-01  1.12746703E+00
   1.67000000E+00  6.82440799E-01  1.12814208E+00
   1.68000000E+00  6.93723400E-01  1.12828942E+00
   1.69000000E+00  7.05004797E-01  1.12789976E+00
   1.70000000E+00  7.16279575E-01  1.12696402E+00
   1.71000000E+00  7.27542228E-01  1.12547336E+00
   1.72000000E+00  7.38787163E-01  1.12341912E+00
   1.73000000E+00  7.50008704E-01  1.12079293E+00
   1.74000000E+00  7.61201088E-01  1.11758663E+00
   1.75000000E+00  7.72358476E-01  1.11379233E+00
   1.76000000E+00  7.83474949E-01  1.10940240E+00
   1.77000000E+00  7.94544514E-01  1.10440950E+00
   1.78000000E+00  8.05561106E-01  1.09880655E+00
   1.79000000E+00  8.16518589E-01  1.09258679E+00
   1.80000000E+00  8.27410764E-01  1.08574375E+00
   1.81000000E+00  8.38231366E-01  1.07827128E+00
   1.82000000E+00  8.48974072E-01  1.07016354E+00
   1.83000000E+00  8.59632501E-01  1.06141505E+00
   1.84000000E+00  8.70200220E-01  1.05202065E+00
   1.85000000E+00  8.80670745E-01  1.04197553E+00
   1.86000000E+00  8.91037547E-01  1.03127523E+00
   1.87000000E+00  9.01294052E-01  1.01991569E+00
   1.88000000E+00  9.11433650E-01  1.00789320E+00
   1.89000000E+00  9.21449695E-01  9.95204429E-01
   1.90000000E+00  9.31335508E-01  9.81846460E-01
   1.91000000E+00  9.41084385E-01  9.67816760E-01
   1.92000000E+00  9.50689597E-01  9.53113211E-01
   1.93000000E+00  9.60144397E-01  9.37734105E-01
   1.94000000E+00  9.69442023E-01  9.21678162E-01
   1.95000000E+00  9.78575702E-01  9.04944525E-01
   1.96000000E+00  9.87538653E-01  8.87532779E-01
   1.97000000E+00  9.96324097E-01  8.69442952E-01
   1.98000000E+00  1.00492525E+00  8.50675518E-01
   1.99000000E+00  1.01333535E+00  8.31231410E-01
   2.00000000E+00  1.02154763E+00  8.11112018E-01
   2.01000000E+00  1.02955535E+00  7.90319203E-01
   2.02000000E+00  1.03735178E+00  7.68855294E-01
   2.03000000E+00  1.04493023E+00  7.46723102E-01
   2.04000000E+00  1.05228402E+00  7.23925916E-01
   2.05000000E+00  1.05940654E+00  7.00467513E-01
   2.06000000E+00  1.06629118E+00  6.76352158E-01
   2.07000000E+00  1.07293141E+00  6.51584608E-01
   2.08000000E+00  1.07932072E+00  6.26170042E-01
   2.09000000E+00  1.08545301E+00  6.00214142E-01
   2.10000000E+00  1.09132355E+00  5.73823266E-01
   2.11000000E+00  1.09692804E+00  5.47004191E-01
   2.12000000E+00  1.10226223E+00  5.19764083E-01
   2.13000000E+00  1.10732195E+00  4.92110406E-01
   2.14000000E+00  1.11210309E+00  4.64050929E-01
   2.15000000E+00  1.11660164E+00  4.35593709E-01
   2.16000000E+00  1.12081366E+00  4.06747101E-01
   2.17000000E+00  1.12473531E+00  3.77519755E-01
   2.18000000E+00  1.12836282E+00  3.47920602E-01
   2.19000000E+00  1.13169252E+00  3.17958865E-01
   2.20000000E+00  1.13472082E+00  2.87644045E-01
   2.21000000E+00  1.13744425E+00  2.56985925E-01
   2.22000000E+00  1.13985943E+00  2.25994561E-01
   2.23000000E+00  1.14196307E+00  1.94680280E-01
   2.24000000E+00  1.14375199E+00  1.63053683E-01
   2.25000000E+00  1.14522314E+00  1.31125633E-01
   2.26000000E+00  1.14637354E+00  9.89072471E-02
   2.27000000E+00  1.14720035E+00  6.64099079E-02
   2.28000000E+00  1.14770084E+00  3.36452403E-02
   2.29000000E+00  1.14787240E+00  6.25121039E-04
   2.30000000E+00  1.14771254E+00 -3.26383333E-02
   2.31000000E+00  1.14721887E+00 -6.61327659E-02
   2.32000000E+00  1.14638915E+00 -9.98455930E-02
   2.33000000E+00  1.14522127E+00 -1.33763999E-01
   2.34000000E+00  1.14371323E+00 -1.67874953E-01
   2.35000000E+00  1.14186317E+00 -2.02165202E-01
   2.36000000E+00  1.13966937E+00 -2.36621290E-01
   2.37000000E+00  1.13713024E+00 -2.71229550E-01
   2.38000000E+00  1.13424432E+00 -3.05976122E-01
   2.39000000E+00  1.13101030E+00 -3.40846951E-01
   2.40000000E+00  1.12742702E+00 -3.75827799E-01
   2.41000000E+00  1.12349343E+00 -4.10904248E-01
   2.42000000E+00  1.11920866E+00 -4.46061707E-01
   2.43000000E+00  1.11457197E+00 -4.81285419E-01
   2.44000000E+00  1.10958278E+00 -5.16560472E-01
   2.45000000E+00  1.10424064E+00 -5.51871795E-01
   2.46000000E+00  1.09854527E+00 -5.87204180E-01
   2.47000000E+00  1.09249654E+00 -6.22542280E-01
   2.48000000E+00  1.08609446E+00 -6.57870615E-01
   2.49000000E+00  1.07933921E+00 -6.93173587E-01
   2.50000000E+00  1.07223113E+00 -7.28435479E-01
   2.51000000E+00  1.06477069E+00 -7.63640471E-01
   2.52000000E+00  1.05695856E+00 -7.98772642E-01
   2.53000000E+00  1.04879554E+00 -8.33815979E-01
   2.54000000E+00  1.04028259E+00 -8.68754390E-01
   2.55000000E+00  1.03142085E+00 -9.03571706E-01
   2.56000000E+00  1.02221161E+00 -9.38251694E-01
   2.57000000E+00  1.01265633E+00 -9.72778058E-01
   2.58000000E+00  1.00275662E+00 -1.00713446E+00
   2.59000000E+00  9.92514262E-01 -1.04130451E+00
   2.60000000E+00  9.81931205E-01 -1.07527180E+00
   2.61000000E+00  9.71009557E-01 -1.10901989E+00
   2.62000000E+00  9.59751593E-01 -1.14253233E+00
   2.63000000E+00  9.48159751E-01 -1.17579265E+00
   2.64000000E+00  9.36236635E-01 -1.20878441E+00
   2.65000000E+00  9.23985012E-01 -1.24149116E+00
   2.66000000E+00  9.11407816E-01 -1.27389646E+00
   2.67000000E+00  8.98508143E-01 -1.30598395E+00
   2.68000000E+00  8.85289251E-01 -1.33773725E+00
   2.69000000E+00  8.71754566E-01 -1.36914007E+00
   2.70000000E+00  8.57907672E-01 -1.40017616E+00
   2.71000000E+00  8.43752319E-01 -1.43082934E+00
   2.72000000E+00  8.29292415E-01 -1.46108351E+00
   2.73000000E+00  8.14532032E-01 -1.49092264E+00
   2.74000000E+00  7.99475399E-01 -1.52033081E+00
   2.75000000E+00  7.84126905E-01 -1.54929221E+00
   2.76000000E+00  7.68491097E-01 -1.57779112E+00
   2.77000000E+00  7.52572676E-01 -1.60581197E+00
   2.78000000E+00  7.36376502E-01 -1.63333929E+00
   2.79000000E+00  7.19907587E-01 -1.66035777E+00
   2.80000000E+00  7.03171094E-01 -1.68685225E+00
   2.81000000E+00  6.86172338E-01 -1.71280773E+00
   2.82000000E+00  6.68916785E-01 -1.73820938E+00
   2.83000000E+00  6.51410046E-01 -1.76304252E+00
   2.84000000E+00  6.33657878E-01 -1.78729270E+00
   2.85000000E+00  6.15666183E-01 -1.81094563E+00
   2.86000000E+00  5.97441003E-01 -1.83398723E+00
   2.87000000E+00  5.78988522E-01 -1.85640366E+00
   2.88000000E+00  5.60315059E-01 -1.87818127E+00
   2.89000000E+00  5.41427071E-01 -1.89930665E+00
   2.90000000E+00  5.22331144E-01 -1.91976663E+00
   2.91000000E+00  5.03033999E-01 -1.93954830E+00
   2.92000000E+00  4.83542482E-01 -1.95863898E+00
   2.93000000E+00  4.63863564E-01 -1.97702628E+00
   2.94000000E+00  4.44004341E-01 -1.99469807E+00
   2.95000000E+00  4.23972027E-01 -2.01164250E+00
   2.96000000E+00  4.03773954E-01 -2.02784800E+00
   2.97000000E+00  3.83417568E-01 -2.04330333E+00
   2.98000000E+00  3.62910425E-01 -2.05799751E+00
   2.99000000E+00  3.42260190E-01 -2.07191992E+00
   3.00000000E+00  3.21474634E-01 -2.08506021E+00
   3.01000000E+00  3.00561627E-01 -2.09740839E+00
   3.02000000E+00  2.79529139E-01 -2.10895479E+00
   3.03000000E+00  2.58385235E-01 -2.11969010E+00
   3.04000000E+00  2.37138070E-01 -2.12960533E+00
   3.05000000E+00  2.15795890E-01 -2.13869186E+00
   3.06000000E+00  1.94367023E-01 -2.14694145E+00
   3.07000000E+00  1.72859878E-01 -2.15434618E+00
   3.08000000E+00  1.51282941E-01 -2.16089856E+00
   3.09000000E+00  1.29644772E-01 -2.16659143E+00
   3.10000000E+00  1.07953999E-01 -2.17141806E+00
   3.11000000E+00  8.62193190E-02 -2.17537208E+00
   3.12000000E+00  6.44494864E-02 -2.17844754E+00
   3.13000000E+00  4.26533154E-02 -2.18063887E+00
   3.14000000E+00  2.08396734E-02 -2.18194092E+00
   3.15000000E+00 -9.82522931E-04 -2.18234896E+00
   3.16000000E+00 -2.28043114E-02 -2.18185867E+00
   3.17000000E+00 -4.46166888E-02 -2.18046614E+00
   3.18000000E+00 -6.64106152E-02 -2.17816792E+00
   3.19000000E+00 -8.81770179E-02 -2.17496095E+00
   3.20000000E+00 -1.09906796E-01 -2.17084262E+00
   3.21000000E+00 -1.31590825E-01 -2.16581078E+00
   3.22000000E+00 -1.53219961E-01 -2.15986369E+00
   3.23000000E+00 -1.74785044E-01 -2.15300006E+00
   3.24000000E+00 -1.96276904E-01 -2.14521907E+00
   3.25000000E+00 -2.17686366E-01 -2.13652032E+00
   3.26000000E+00 -2.39004252E-01 -2.12690388E+00
   3.27000000E+00 -2.60221387E-01 -2.11637028E+00
   3.28000000E+00 -2.81328603E-01 -2.10492048E+00
   3.29000000E+00 -3.02316747E-01 -2.09255592E+00
   3.30000000E+00 -3.23176679E-01 -2.07927851E+00
   3.31000000E+00 -3.43899282E-01 -2.06509058E+00
   3.32000000E+00 -3.64475465E-01 -2.04999498E+00
   3.33000000E+00 -3.84896167E-01 -2.03399496E+00
   3.34000000E+00 -4.05152362E-01 -2.01709429E+00
   3.35000000E+00 -4.25235064E-01 -1.99929716E+00
   3.36000000E+00 -4.45135332E-01 -1.98060825E+00
   3.37000000E+00 -4.64844274E-01 -1.96103270E+00
   3.38000000E+00 -4.84353049E-01 -1.94057609E+00
   3.39000000E+00 -5.03652879E-01 -1.91924448E+00
   3.40000000E+00 -5.22735044E-01 -1.89704440E+00
   3.41000000E+00 -5.41590895E-01 -1.87398283E+00
   3.42000000E+00 -5.60211854E-01 -1.85006719E+00
   3.43000000E+00 -5.78589418E-01 -1.82530538E+00
   3.44000000E+00 -5.96715168E-01 -1.79970575E+00
   3.45000000E+00 -6.14580770E-01 -1.77327710E+00
   3.46000000E+00 -6.32177978E-01 -1.74602866E+00
   3.47000000E+00 -6.49498643E-01 -1.71797013E+00
   3.48000000E+00 -6.66534714E-01 -1.68911163E+00
   3.49000000E+00 -6.83278244E-01 -1.65946376E+00
   3.50000000E+00 -6.99721394E-01 -1.62903750E+00
   3.51000000E+00 -7.15856437E-01 -1.59784431E+00
   3.52000000E+00 -7.31675763E-01 -1.56589604E+00
   3.53000000E+00 -7.47171882E-01 -1.53320499E+00
   3.54000000E+00 -7.62337429E-01 -1.49978386E+00
   3.55000000E+00 -7.77165170E-01 -1.46564579E+00
   3.56000000E+00 -7.91648000E-01 -1.43080429E+00
   3.57000000E+00 -8.05778957E-01 -1.39527329E+00
   3.58000000E+00 -8.19551216E-01 -1.35906714E+00
   3.59000000E+00 -8.32958098E-01 -1.32220055E+00
   3.60000000E+00 -8.45993075E-01 -1.28468861E+00
   3.61000000E+00 -8.58649771E-01 -1.24654683E+00
   3.62000000E+00 -8.70921965E-01 -1.20779104E+00
   3.63000000E+00 -8.82803599E-01 -1.16843748E+00
   3.64000000E+00 -8.94288778E-01 -1.12850272E+00
   3.65000000E+00 -9.05371773E-01 -1.08800369E+00
   3.66000000E+00 -9.16047028E-01 -1.04695766E+00
   3.67000000E+00 -9.26309161E-01 -1.00538225E+00
   3.68000000E+00 -9.36152968E-01 -9.63295381E-01
   3.69000000E+00 -9.45573425E-01 -9.20715314E-01
   3.70000000E+00 -9.54565692E-01 -8.77660612E-01
   3.71000000E+00 -9.63125118E-01 -8.34150145E-01
   3.72000000E+00 -9.71247240E-01 -7.90203076E-01
   3.73000000E+00 -9.78927789E-01 -7.45838849E-01
   3.74000000E+00 -9.86162692E-01 -7.01077187E-01
   3.75000000E+00 -9.92948074E-01 -6.55938078E-01
   3.76000000E+00 -9.99280263E-01 -6.10441767E-01
   3.77000000E+00 -1.00515579E+00 -5.64608747E-01
   3.78000000E+00 -1.01057138E+00 -5.18459749E-01
   3.79000000E+00 -1.01552400E+00 -4.72015728E-01
   3.80000000E+00 -1.02001079E+00 -4.25297854E-01
   3.81000000E+00 -1.02402911E+00 -3.78327508E-01
   3.82000000E+00 -1.02757657E+00 -3.31126267E-01
   3.83000000E+00 -1.03065094E+00 -2.83715898E-01
   3.84000000E+00 -1.03325026E+00 -2.36118334E-01
   3.85000000E+00 -1.03537276E+00 -1.88355677E-01
   3.86000000E+00 -1.03701690E+00 -1.40450178E-01
   3.87000000E+00 -1.03818136E+00 -9.24242337E-02
   3.88000000E+00 -1.03886506E+00 -4.43003700E-02
   3.89000000E+00 -1.03906712E+00  3.89876416E-03
   3.90000000E+00 -1.03878691E+00  5.21504168E-02
