 # Radial wave functions calculated by RADIAL.
 # **** Schrodinger Eq. Numerical potential.
 #      Input potential file: potential_1T2z.dat  
 #      Free state: E= 4.409917E-01, L=   4  (EPS= 1.0E-15)
 #        Inner phase shift= 1.843593485296768E-02
 #      Coulomb phase shift=-1.613425373742660E+00  (ETA=-1.064833E+00)
 #      Matching radius: RAD(  932)= 9.310000000000000E+00
 #       R              P(R)            Q(R)
   0.00000000E+00  0.00000000E+00  0.00000000E+00
   1.00000000E-02  7.51180574E-13  3.74706599E-10
   2.00000000E-02  2.37594483E-11  5.91246934E-09
   3.00000000E-02  1.78375848E-10  2.95277899E-08
   4.00000000E-02  7.43315020E-10  9.20915317E-08
   5.00000000E-02  2.24369478E-09  2.21935531E-07
   6.00000000E-02  5.52339237E-09  4.54410123E-07
   7.00000000E-02  1.18132111E-08  8.31487566E-07
   8.00000000E-02  2.27952832E-08  1.40140479E-06
   9.00000000E-02  4.06640718E-08  2.21833956E-06
   1.00000000E-01  6.81842793E-08  3.34211481E-06
   1.10000000E-01  1.08745921E-07  4.83792669E-06
   1.20000000E-01  1.66416784E-07  6.77609257E-06
   1.30000000E-01  2.45992446E-07  9.23181582E-06
   1.40000000E-01  3.53044024E-07  1.22849648E-05
   1.50000000E-01  4.93963768E-07  1.60198639E-05
   1.60000000E-01  6.76008624E-07  2.05250955E-05
   1.70000000E-01  9.07341857E-07  2.58933106E-05
   1.80000000E-01  1.19707283E-06  3.22210484E-05
   1.90000000E-01  1.55529502E-06  3.96085629E-05
   2.00000000E-01  1.99312231E-06  4.81596562E-05
   2.10000000E-01  2.52272369E-06  5.79815199E-05
   2.20000000E-01  3.15735636E-06  6.91845809E-05
   2.30000000E-01  3.91139735E-06  8.18823546E-05
   2.40000000E-01  4.80037372E-06  9.61913034E-05
   2.50000000E-01  5.84099129E-06  1.12230702E-04
   2.60000000E-01  7.05116216E-06  1.30122507E-04
   2.70000000E-01  8.45003089E-06  1.49991233E-04
   2.80000000E-01  1.00579995E-05  1.71963835E-04
   2.90000000E-01  1.18967512E-05  1.96169598E-04
   3.00000000E-01  1.39892734E-05  2.22740025E-04
   3.10000000E-01  1.63598791E-05  2.51808738E-04
   3.20000000E-01  1.90342277E-05  2.83511382E-04
   3.30000000E-01  2.20393449E-05  3.17985531E-04
   3.40000000E-01  2.54036413E-05  3.55370608E-04
   3.50000000E-01  2.91569306E-05  3.95807795E-04
   3.60000000E-01  3.33304469E-05  4.39439961E-04
   3.70000000E-01  3.79568612E-05  4.86411589E-04
   3.80000000E-01  4.30702968E-05  5.36868710E-04
   3.90000000E-01  4.87063452E-05  5.90958831E-04
   4.00000000E-01  5.49020798E-05  6.48830885E-04
   4.10000000E-01  6.16960702E-05  7.10635167E-04
   4.20000000E-01  6.91283957E-05  7.76523282E-04
   4.30000000E-01  7.72406580E-05  8.46648098E-04
   4.40000000E-01  8.60759935E-05  9.21163693E-04
   4.50000000E-01  9.56790852E-05  1.00022531E-03
   4.60000000E-01  1.06096174E-04  1.08398934E-03
   4.70000000E-01  1.17375071E-04  1.17261322E-03
   4.80000000E-01  1.29565167E-04  1.26625548E-03
   4.90000000E-01  1.42717441E-04  1.36507563E-03
   5.00000000E-01  1.56884474E-04  1.46923417E-03
   5.10000000E-01  1.72120457E-04  1.57889254E-03
   5.20000000E-01  1.88481198E-04  1.69421309E-03
   5.30000000E-01  2.06024136E-04  1.81535905E-03
   5.40000000E-01  2.24808344E-04  1.94249451E-03
   5.50000000E-01  2.44894541E-04  2.07578437E-03
   5.60000000E-01  2.66345099E-04  2.21539432E-03
   5.70000000E-01  2.89224049E-04  2.36149081E-03
   5.80000000E-01  3.13597094E-04  2.51424102E-03
   5.90000000E-01  3.39531608E-04  2.67381284E-03
   6.00000000E-01  3.67096651E-04  2.84037483E-03
   6.10000000E-01  3.96362969E-04  3.01409620E-03
   6.20000000E-01  4.27403005E-04  3.19514675E-03
   6.30000000E-01  4.60290903E-04  3.38369688E-03
   6.40000000E-01  4.95102512E-04  3.57991755E-03
   6.50000000E-01  5.31915394E-04  3.78398022E-03
   6.60000000E-01  5.70808829E-04  3.99605684E-03
   6.70000000E-01  6.11863818E-04  4.21631981E-03
   6.80000000E-01  6.55163089E-04  4.44494196E-03
   6.90000000E-01  7.00791099E-04  4.68209648E-03
   7.00000000E-01  7.48834038E-04  4.92795689E-03
   7.10000000E-01  7.99379836E-04  5.18269707E-03
   7.20000000E-01  8.52518159E-04  5.44649109E-03
   7.30000000E-01  9.08340418E-04  5.71951329E-03
   7.40000000E-01  9.66939767E-04  6.00193818E-03
   7.50000000E-01  1.02841111E-03  6.29394036E-03
   7.60000000E-01  1.09285108E-03  6.59569457E-03
   7.70000000E-01  1.16035809E-03  6.90737556E-03
   7.80000000E-01  1.23103226E-03  7.22915807E-03
   7.90000000E-01  1.30497550E-03  7.56121678E-03
   8.00000000E-01  1.38229144E-03  7.90372626E-03
   8.10000000E-01  1.46308544E-03  8.25686089E-03
   8.20000000E-01  1.54746465E-03  8.62079482E-03
   8.30000000E-01  1.63553792E-03  8.99570193E-03
   8.40000000E-01  1.72741585E-03  9.38175573E-03
   8.50000000E-01  1.82321077E-03  9.77912931E-03
   8.60000000E-01  1.92303674E-03  1.01879953E-02
   8.70000000E-01  2.02700955E-03  1.06085257E-02
   8.80000000E-01  2.13524671E-03  1.10408921E-02
   8.90000000E-01  2.24786742E-03  1.14852652E-02
   9.00000000E-01  2.36499260E-03  1.19418151E-02
   9.10000000E-01  2.48674487E-03  1.24107109E-02
   9.20000000E-01  2.61324853E-03  1.28921209E-02
   9.30000000E-01  2.74462956E-03  1.33862125E-02
   9.40000000E-01  2.88101561E-03  1.38931518E-02
   9.50000000E-01  3.02253597E-03  1.44131039E-02
   9.60000000E-01  3.16932161E-03  1.49462326E-02
   9.70000000E-01  3.32150509E-03  1.54927005E-02
   9.80000000E-01  3.47922062E-03  1.60526688E-02
   9.90000000E-01  3.64260400E-03  1.66262969E-02
   1.00000000E+00  3.81179262E-03  1.72137429E-02
   1.01000000E+00  3.98692544E-03  1.78151631E-02
   1.02000000E+00  4.16814298E-03  1.84307121E-02
   1.03000000E+00  4.35558729E-03  1.90605425E-02
   1.04000000E+00  4.54940193E-03  1.97048050E-02
   1.05000000E+00  4.74973199E-03  2.03636482E-02
   1.06000000E+00  4.95672399E-03  2.10372185E-02
   1.07000000E+00  5.17052593E-03  2.17256601E-02
   1.08000000E+00  5.39128723E-03  2.24291145E-02
   1.09000000E+00  5.61915873E-03  2.31477210E-02
   1.10000000E+00  5.85429262E-03  2.38816163E-02
   1.11000000E+00  6.09684246E-03  2.46309342E-02
   1.12000000E+00  6.34696315E-03  2.53958056E-02
   1.13000000E+00  6.60481085E-03  2.61763586E-02
   1.14000000E+00  6.87054301E-03  2.69727183E-02
   1.15000000E+00  7.14431831E-03  2.77850062E-02
   1.16000000E+00  7.42629662E-03  2.86133410E-02
   1.17000000E+00  7.71663900E-03  2.94578377E-02
   1.18000000E+00  8.01550762E-03  3.03186075E-02
   1.19000000E+00  8.32306576E-03  3.11957585E-02
   1.20000000E+00  8.63947774E-03  3.20893945E-02
   1.21000000E+00  8.96490893E-03  3.29996156E-02
   1.22000000E+00  9.29952566E-03  3.39265177E-02
   1.23000000E+00  9.64349519E-03  3.48701926E-02
   1.24000000E+00  9.99698571E-03  3.58307278E-02
   1.25000000E+00  1.03601662E-02  3.68082063E-02
   1.26000000E+00  1.07332066E-02  3.78027066E-02
   1.27000000E+00  1.11162773E-02  3.88143023E-02
   1.28000000E+00  1.15095498E-02  3.98430623E-02
   1.29000000E+00  1.19131960E-02  4.08890505E-02
   1.30000000E+00  1.23273885E-02  4.19523257E-02
   1.31000000E+00  1.27523003E-02  4.30329415E-02
   1.32000000E+00  1.31881053E-02  4.41309460E-02
   1.33000000E+00  1.36349774E-02  4.52463819E-02
   1.34000000E+00  1.40930911E-02  4.63792861E-02
   1.35000000E+00  1.45626214E-02  4.75296898E-02
   1.36000000E+00  1.50437433E-02  4.86976184E-02
   1.37000000E+00  1.55366323E-02  4.98830911E-02
   1.38000000E+00  1.60414637E-02  5.10861208E-02
   1.39000000E+00  1.65584132E-02  5.23067143E-02
   1.40000000E+00  1.70876565E-02  5.35448717E-02
   1.41000000E+00  1.76293692E-02  5.48005868E-02
   1.42000000E+00  1.81837267E-02  5.60738464E-02
   1.43000000E+00  1.87509045E-02  5.73646305E-02
   1.44000000E+00  1.93310777E-02  5.86729122E-02
   1.45000000E+00  1.99244210E-02  5.99986573E-02
   1.46000000E+00  2.05311089E-02  6.13418244E-02
   1.47000000E+00  2.11513154E-02  6.27023648E-02
   1.48000000E+00  2.17852139E-02  6.40802221E-02
   1.49000000E+00  2.24329773E-02  6.54753324E-02
   1.50000000E+00  2.30947778E-02  6.68876239E-02
   1.51000000E+00  2.37707868E-02  6.83170168E-02
   1.52000000E+00  2.44611749E-02  6.97634235E-02
   1.53000000E+00  2.51661117E-02  7.12267482E-02
   1.54000000E+00  2.58857659E-02  7.27068865E-02
   1.55000000E+00  2.66203051E-02  7.42037259E-02
   1.56000000E+00  2.73698957E-02  7.57171455E-02
   1.57000000E+00  2.81347028E-02  7.72470153E-02
   1.58000000E+00  2.89148904E-02  7.87931968E-02
   1.59000000E+00  2.97106207E-02  8.03555426E-02
   1.60000000E+00  3.05220546E-02  8.19338965E-02
   1.61000000E+00  3.13493514E-02  8.35280929E-02
   1.62000000E+00  3.21926687E-02  8.51379572E-02
   1.63000000E+00  3.30521621E-02  8.67633053E-02
   1.64000000E+00  3.39279857E-02  8.84039440E-02
   1.65000000E+00  3.48202913E-02  9.00596704E-02
   1.66000000E+00  3.57292287E-02  9.17302719E-02
   1.67000000E+00  3.66549456E-02  9.34155263E-02
   1.68000000E+00  3.75975873E-02  9.51152019E-02
   1.69000000E+00  3.85572969E-02  9.68290568E-02
   1.70000000E+00  3.95342149E-02  9.85568392E-02
   1.71000000E+00  4.05284792E-02  1.00298287E-01
   1.72000000E+00  4.15402253E-02  1.02053129E-01
   1.73000000E+00  4.25695855E-02  1.03821083E-01
   1.74000000E+00  4.36166897E-02  1.05601856E-01
   1.75000000E+00  4.46816644E-02  1.07395146E-01
   1.76000000E+00  4.57646333E-02  1.09200639E-01
   1.77000000E+00  4.68657168E-02  1.11018014E-01
   1.78000000E+00  4.79850320E-02  1.12846934E-01
   1.79000000E+00  4.91226928E-02  1.14687057E-01
   1.80000000E+00  5.02788093E-02  1.16538026E-01
   1.81000000E+00  5.14534882E-02  1.18399476E-01
   1.82000000E+00  5.26468325E-02  1.20271031E-01
   1.83000000E+00  5.38589413E-02  1.22152305E-01
   1.84000000E+00  5.50899097E-02  1.24042898E-01
   1.85000000E+00  5.63398289E-02  1.25942403E-01
   1.86000000E+00  5.76087861E-02  1.27850401E-01
   1.87000000E+00  5.88968638E-02  1.29766461E-01
   1.88000000E+00  6.02041407E-02  1.31690142E-01
   1.89000000E+00  6.15306906E-02  1.33620994E-01
   1.90000000E+00  6.28765829E-02  1.35558553E-01
   1.91000000E+00  6.42418824E-02  1.37502347E-01
   1.92000000E+00  6.56266490E-02  1.39451892E-01
   1.93000000E+00  6.70309378E-02  1.41406693E-01
   1.94000000E+00  6.84547987E-02  1.43366244E-01
   1.95000000E+00  6.98982768E-02  1.45330031E-01
   1.96000000E+00  7.13614117E-02  1.47297525E-01
   1.97000000E+00  7.28442379E-02  1.49268190E-01
   1.98000000E+00  7.43467842E-02  1.51241478E-01
   1.99000000E+00  7.58690743E-02  1.53216831E-01
   2.00000000E+00  7.74111258E-02  1.55193679E-01
   2.01000000E+00  7.89729509E-02  1.57171444E-01
   2.02000000E+00  8.05545558E-02  1.59149536E-01
   2.03000000E+00  8.21559408E-02  1.61127355E-01
   2.04000000E+00  8.37771000E-02  1.63104291E-01
   2.05000000E+00  8.54180216E-02  1.65079725E-01
   2.06000000E+00  8.70786874E-02  1.67053025E-01
   2.07000000E+00  8.87590728E-02  1.69023553E-01
   2.08000000E+00  9.04591470E-02  1.70990651E-01
   2.09000000E+00  9.21789003E-02  1.72962110E-01
   2.10000000E+00  9.39184307E-02  1.74946028E-01
   2.11000000E+00  9.56778618E-02  1.76942203E-01
   2.12000000E+00  9.74573150E-02  1.78950437E-01
   2.13000000E+00  9.92569100E-02  1.80970531E-01
   2.14000000E+00  1.01076764E-01  1.83002284E-01
   2.15000000E+00  1.02916994E-01  1.85045492E-01
   2.16000000E+00  1.04777712E-01  1.87099948E-01
   2.17000000E+00  1.06659030E-01  1.89165447E-01
   2.18000000E+00  1.08561057E-01  1.91241776E-01
   2.19000000E+00  1.10483901E-01  1.93328724E-01
   2.20000000E+00  1.12427666E-01  1.95426077E-01
   2.21000000E+00  1.14392456E-01  1.97533616E-01
   2.22000000E+00  1.16378372E-01  1.99651123E-01
   2.23000000E+00  1.18385511E-01  2.01778375E-01
   2.24000000E+00  1.20413971E-01  2.03915148E-01
   2.25000000E+00  1.22463845E-01  2.06061217E-01
   2.26000000E+00  1.24535225E-01  2.08216350E-01
   2.27000000E+00  1.26628201E-01  2.10380317E-01
   2.28000000E+00  1.28742860E-01  2.12552884E-01
   2.29000000E+00  1.30879287E-01  2.14733813E-01
   2.30000000E+00  1.33037564E-01  2.16922865E-01
   2.31000000E+00  1.35217771E-01  2.19119799E-01
   2.32000000E+00  1.37419985E-01  2.21324369E-01
   2.33000000E+00  1.39644283E-01  2.23536330E-01
   2.34000000E+00  1.41890736E-01  2.25755430E-01
   2.35000000E+00  1.44159414E-01  2.27981419E-01
   2.36000000E+00  1.46450386E-01  2.30214041E-01
   2.37000000E+00  1.48763716E-01  2.32453039E-01
   2.38000000E+00  1.51099467E-01  2.34698152E-01
   2.39000000E+00  1.53457699E-01  2.36949120E-01
   2.40000000E+00  1.55838468E-01  2.39205675E-01
   2.41000000E+00  1.58241830E-01  2.41467552E-01
   2.42000000E+00  1.60667836E-01  2.43734479E-01
   2.43000000E+00  1.63116536E-01  2.46006184E-01
   2.44000000E+00  1.65587975E-01  2.48282391E-01
   2.45000000E+00  1.68082197E-01  2.50562824E-01
   2.46000000E+00  1.70599244E-01  2.52847201E-01
   2.47000000E+00  1.73139154E-01  2.55135240E-01
   2.48000000E+00  1.75701960E-01  2.57426655E-01
   2.49000000E+00  1.78287697E-01  2.59721159E-01
   2.50000000E+00  1.80896393E-01  2.62018462E-01
   2.51000000E+00  1.83528075E-01  2.64318271E-01
   2.52000000E+00  1.86182766E-01  2.66620290E-01
   2.53000000E+00  1.88860487E-01  2.68924224E-01
   2.54000000E+00  1.91561256E-01  2.71229772E-01
   2.55000000E+00  1.94285087E-01  2.73536632E-01
   2.56000000E+00  1.97031992E-01  2.75844499E-01
   2.57000000E+00  1.99801979E-01  2.78153068E-01
   2.58000000E+00  2.02595054E-01  2.80462029E-01
   2.59000000E+00  2.05411220E-01  2.82771071E-01
   2.60000000E+00  2.08250475E-01  2.85079882E-01
   2.61000000E+00  2.11112816E-01  2.87388145E-01
   2.62000000E+00  2.13998235E-01  2.89695543E-01
   2.63000000E+00  2.16906723E-01  2.92001757E-01
   2.64000000E+00  2.19838265E-01  2.94306465E-01
   2.65000000E+00  2.22792846E-01  2.96609344E-01
   2.66000000E+00  2.25770445E-01  2.98910067E-01
   2.67000000E+00  2.28771039E-01  3.01208308E-01
   2.68000000E+00  2.31794602E-01  3.03503736E-01
   2.69000000E+00  2.34841103E-01  3.05796021E-01
   2.70000000E+00  2.37910510E-01  3.08084829E-01
   2.71000000E+00  2.41002787E-01  3.10369826E-01
   2.72000000E+00  2.44117893E-01  3.12650674E-01
   2.73000000E+00  2.47255785E-01  3.14927036E-01
   2.74000000E+00  2.50416418E-01  3.17198571E-01
   2.75000000E+00  2.53599740E-01  3.19464937E-01
   2.76000000E+00  2.56805698E-01  3.21725792E-01
   2.77000000E+00  2.60034236E-01  3.23980791E-01
   2.78000000E+00  2.63285293E-01  3.26229587E-01
   2.79000000E+00  2.66558806E-01  3.28471833E-01
   2.80000000E+00  2.69854707E-01  3.30707178E-01
   2.81000000E+00  2.73172925E-01  3.32935275E-01
   2.82000000E+00  2.76513387E-01  3.35155769E-01
   2.83000000E+00  2.79876014E-01  3.37368309E-01
   2.84000000E+00  2.83260725E-01  3.39572539E-01
   2.85000000E+00  2.86667436E-01  3.41768106E-01
   2.86000000E+00  2.90096058E-01  3.43954651E-01
   2.87000000E+00  2.93546498E-01  3.46131819E-01
   2.88000000E+00  2.97018661E-01  3.48299249E-01
   2.89000000E+00  3.00512449E-01  3.50456583E-01
   2.90000000E+00  3.04027758E-01  3.52603460E-01
   2.91000000E+00  3.07564482E-01  3.54739519E-01
   2.92000000E+00  3.11122511E-01  3.56864397E-01
   2.93000000E+00  3.14701732E-01  3.58977733E-01
   2.94000000E+00  3.18302026E-01  3.61079161E-01
   2.95000000E+00  3.21923274E-01  3.63168319E-01
   2.96000000E+00  3.25565351E-01  3.65244841E-01
   2.97000000E+00  3.29228128E-01  3.67308362E-01
   2.98000000E+00  3.32911473E-01  3.69358516E-01
   2.99000000E+00  3.36615252E-01  3.71394937E-01
   3.00000000E+00  3.40339325E-01  3.73417257E-01
   3.01000000E+00  3.44083549E-01  3.75425111E-01
   3.02000000E+00  3.47847778E-01  3.77418130E-01
   3.03000000E+00  3.51631861E-01  3.79395948E-01
   3.04000000E+00  3.55435645E-01  3.81358196E-01
   3.05000000E+00  3.59258972E-01  3.83304507E-01
   3.06000000E+00  3.63101681E-01  3.85234513E-01
   3.07000000E+00  3.66963606E-01  3.87147847E-01
   3.08000000E+00  3.70844581E-01  3.89044140E-01
   3.09000000E+00  3.74744431E-01  3.90923025E-01
   3.10000000E+00  3.78662982E-01  3.92784134E-01
   3.11000000E+00  3.82600053E-01  3.94627099E-01
   3.12000000E+00  3.86555462E-01  3.96451555E-01
   3.13000000E+00  3.90529022E-01  3.98257133E-01
   3.14000000E+00  3.94520541E-01  4.00043468E-01
   3.15000000E+00  3.98529826E-01  4.01810195E-01
   3.16000000E+00  4.02556678E-01  4.03556948E-01
   3.17000000E+00  4.06600897E-01  4.05283360E-01
   3.18000000E+00  4.10662276E-01  4.06989070E-01
   3.19000000E+00  4.14740608E-01  4.08673714E-01
   3.20000000E+00  4.18835679E-01  4.10336927E-01
   3.21000000E+00  4.22947274E-01  4.11978350E-01
   3.22000000E+00  4.27075172E-01  4.13597620E-01
   3.23000000E+00  4.31219151E-01  4.15194376E-01
   3.24000000E+00  4.35378984E-01  4.16768261E-01
   3.25000000E+00  4.39554439E-01  4.18318916E-01
   3.26000000E+00  4.43745283E-01  4.19845981E-01
   3.27000000E+00  4.47951279E-01  4.21349103E-01
   3.28000000E+00  4.52172184E-01  4.22827926E-01
   3.29000000E+00  4.56407755E-01  4.24282097E-01
   3.30000000E+00  4.60657743E-01  4.25711263E-01
   3.31000000E+00  4.64921896E-01  4.27115072E-01
   3.32000000E+00  4.69199959E-01  4.28493176E-01
   3.33000000E+00  4.73491673E-01  4.29845228E-01
   3.34000000E+00  4.77796775E-01  4.31170878E-01
   3.35000000E+00  4.82115001E-01  4.32469783E-01
   3.36000000E+00  4.86446081E-01  4.33741599E-01
   3.37000000E+00  4.90789742E-01  4.34985982E-01
   3.38000000E+00  4.95145708E-01  4.36202594E-01
   3.39000000E+00  4.99513700E-01  4.37391095E-01
   3.40000000E+00  5.03893435E-01  4.38551149E-01
   3.41000000E+00  5.08284627E-01  4.39682423E-01
   3.42000000E+00  5.12686986E-01  4.40784584E-01
   3.43000000E+00  5.17100220E-01  4.41857300E-01
   3.44000000E+00  5.21524033E-01  4.42900245E-01
   3.45000000E+00  5.25958125E-01  4.43913090E-01
   3.46000000E+00  5.30402193E-01  4.44895511E-01
   3.47000000E+00  5.34855933E-01  4.45847185E-01
   3.48000000E+00  5.39319033E-01  4.46767792E-01
   3.49000000E+00  5.43791184E-01  4.47657016E-01
   3.50000000E+00  5.48272068E-01  4.48514541E-01
   3.51000000E+00  5.52761368E-01  4.49340055E-01
   3.52000000E+00  5.57258761E-01  4.50133246E-01
   3.53000000E+00  5.61763924E-01  4.50893807E-01
   3.54000000E+00  5.66276528E-01  4.51621431E-01
   3.55000000E+00  5.70796242E-01  4.52315817E-01
   3.56000000E+00  5.75322732E-01  4.52976667E-01
   3.57000000E+00  5.79855662E-01  4.53603681E-01
   3.58000000E+00  5.84394692E-01  4.54196566E-01
   3.59000000E+00  5.88939479E-01  4.54755029E-01
   3.60000000E+00  5.93489677E-01  4.55278782E-01
   3.61000000E+00  5.98044938E-01  4.55767538E-01
   3.62000000E+00  6.02604910E-01  4.56221014E-01
   3.63000000E+00  6.07169240E-01  4.56638932E-01
   3.64000000E+00  6.11737569E-01  4.57021014E-01
   3.65000000E+00  6.16309540E-01  4.57366985E-01
   3.66000000E+00  6.20884788E-01  4.57676576E-01
   3.67000000E+00  6.25462949E-01  4.57949518E-01
   3.68000000E+00  6.30043655E-01  4.58185550E-01
   3.69000000E+00  6.34626536E-01  4.58384408E-01
   3.70000000E+00  6.39211219E-01  4.58545834E-01
   3.71000000E+00  6.43797327E-01  4.58669574E-01
   3.72000000E+00  6.48384484E-01  4.58755380E-01
   3.73000000E+00  6.52972307E-01  4.58803002E-01
   3.74000000E+00  6.57560416E-01  4.58812196E-01
   3.75000000E+00  6.62148422E-01  4.58782722E-01
   3.76000000E+00  6.66735940E-01  4.58714345E-01
   3.77000000E+00  6.71322579E-01  4.58606830E-01
   3.78000000E+00  6.75907946E-01  4.58459951E-01
   3.79000000E+00  6.80491646E-01  4.58273479E-01
   3.80000000E+00  6.85073283E-01  4.58047193E-01
   3.81000000E+00  6.89652456E-01  4.57780873E-01
   3.82000000E+00  6.94228766E-01  4.57474305E-01
   3.83000000E+00  6.98801808E-01  4.57127283E-01
   3.84000000E+00  7.03371176E-01  4.56739598E-01
   3.85000000E+00  7.07936463E-01  4.56311047E-01
   3.86000000E+00  7.12497260E-01  4.55841431E-01
   3.87000000E+00  7.17053154E-01  4.55330554E-01
   3.88000000E+00  7.21603733E-01  4.54778228E-01
   3.89000000E+00  7.26148580E-01  4.54184266E-01
   3.90000000E+00  7.30687279E-01  4.53548487E-01
