 # Radial wave functions calculated by RADIAL.
 # **** Schrodinger Eq. Numerical potential.
 #      Input potential file: potential_1T2x.dat  
 #      Free state: E= 4.409917E-01, L=   3  (EPS= 1.0E-15)
 #        Inner phase shift= 1.148176396187415E-01
 #      Coulomb phase shift=-1.353251002672382E+00  (ETA=-1.064833E+00)
 #      Matching radius: RAD(  850)= 8.490000000000000E+00
 #       R              P(R)            Q(R)
   0.00000000E+00  0.00000000E+00  0.00000000E+00
   1.00000000E-02  9.19671854E-10  3.66514960E-07
   2.00000000E-02  1.45017552E-08  2.87940842E-06
   3.00000000E-02  7.23725391E-08  9.54715187E-06
   4.00000000E-02  2.25546345E-07  2.22412507E-05
   5.00000000E-02  5.43124497E-07  4.27097219E-05
   6.00000000E-02  1.11112163E-06  7.25890888E-05
   7.00000000E-02  2.03140476E-06  1.13414950E-04
   8.00000000E-02  3.42073129E-06  1.66631221E-04
   9.00000000E-02  5.40987327E-06  2.33598165E-04
   1.00000000E-01  8.14281657E-06  3.15599351E-04
   1.10000000E-01  1.17760247E-05  4.13847670E-04
   1.20000000E-01  1.64777585E-05  5.29490520E-04
   1.30000000E-01  2.24274445E-05  6.63614310E-04
   1.40000000E-01  2.98150848E-05  8.17248346E-04
   1.50000000E-01  3.88407033E-05  9.91368238E-04
   1.60000000E-01  4.97138241E-05  1.18689889E-03
   1.70000000E-01  6.26529780E-05  1.40471710E-03
   1.80000000E-01  7.78852333E-05  1.64565400E-03
   1.90000000E-01  9.56457498E-05  1.91049708E-03
   2.00000000E-01  1.16177353E-04  2.19999221E-03
   2.10000000E-01  1.39730125E-04  2.51484541E-03
   2.20000000E-01  1.66561018E-04  2.85572451E-03
   2.30000000E-01  1.96933476E-04  3.22326075E-03
   2.40000000E-01  2.31117081E-04  3.61805026E-03
   2.50000000E-01  2.69387204E-04  4.04065551E-03
   2.60000000E-01  3.12024681E-04  4.49160671E-03
   2.70000000E-01  3.59315492E-04  4.97140312E-03
   2.80000000E-01  4.11550463E-04  5.48051438E-03
   2.90000000E-01  4.69024970E-04  6.01938178E-03
   3.00000000E-01  5.32038669E-04  6.58841951E-03
   3.10000000E-01  6.00895225E-04  7.18801586E-03
   3.20000000E-01  6.75902063E-04  7.81853444E-03
   3.30000000E-01  7.57370124E-04  8.48031528E-03
   3.40000000E-01  8.45613637E-04  9.17367604E-03
   3.50000000E-01  9.40949901E-04  9.89891301E-03
   3.60000000E-01  1.04369907E-03  1.06563023E-02
   3.70000000E-01  1.15418398E-03  1.14461006E-02
   3.80000000E-01  1.27272991E-03  1.22685468E-02
   3.90000000E-01  1.39966448E-03  1.31238622E-02
   4.00000000E-01  1.53531741E-03  1.40122518E-02
   4.10000000E-01  1.68002040E-03  1.49339054E-02
   4.20000000E-01  1.83410698E-03  1.58889980E-02
   4.30000000E-01  1.99791236E-03  1.68776909E-02
   4.40000000E-01  2.17177330E-03  1.79001326E-02
   4.50000000E-01  2.35602796E-03  1.89564591E-02
   4.60000000E-01  2.55101584E-03  2.00467950E-02
   4.70000000E-01  2.75707761E-03  2.11712539E-02
   4.80000000E-01  2.97455501E-03  2.23299394E-02
   4.90000000E-01  3.20379080E-03  2.35229453E-02
   5.00000000E-01  3.44512860E-03  2.47503560E-02
   5.10000000E-01  3.69891286E-03  2.60122475E-02
   5.20000000E-01  3.96548872E-03  2.73086877E-02
   5.30000000E-01  4.24520197E-03  2.86397364E-02
   5.40000000E-01  4.53839898E-03  3.00054464E-02
   5.50000000E-01  4.84542659E-03  3.14058633E-02
   5.60000000E-01  5.16663207E-03  3.28410260E-02
   5.70000000E-01  5.50236304E-03  3.43109671E-02
   5.80000000E-01  5.85296743E-03  3.58157129E-02
   5.90000000E-01  6.21879338E-03  3.73552841E-02
   6.00000000E-01  6.60018924E-03  3.89296953E-02
   6.10000000E-01  6.99750346E-03  4.05389558E-02
   6.20000000E-01  7.41108454E-03  4.21830694E-02
   6.30000000E-01  7.84128102E-03  4.38620346E-02
   6.40000000E-01  8.28844138E-03  4.55758447E-02
   6.50000000E-01  8.75291402E-03  4.73244880E-02
   6.60000000E-01  9.23504719E-03  4.91079474E-02
   6.70000000E-01  9.73518895E-03  5.09262007E-02
   6.80000000E-01  1.02536871E-02  5.27792212E-02
   6.90000000E-01  1.07908892E-02  5.46669764E-02
   7.00000000E-01  1.13471423E-02  5.65894290E-02
   7.10000000E-01  1.19227933E-02  5.85465365E-02
   7.20000000E-01  1.25181884E-02  6.05382509E-02
   7.30000000E-01  1.31336735E-02  6.25645191E-02
   7.40000000E-01  1.37695937E-02  6.46252824E-02
   7.50000000E-01  1.44262939E-02  6.67204764E-02
   7.60000000E-01  1.51041178E-02  6.88500311E-02
   7.70000000E-01  1.58034088E-02  7.10138705E-02
   7.80000000E-01  1.65245092E-02  7.32119128E-02
   7.90000000E-01  1.72677607E-02  7.54440699E-02
   8.00000000E-01  1.80335040E-02  7.77102472E-02
   8.10000000E-01  1.88220788E-02  8.00103434E-02
   8.20000000E-01  1.96338236E-02  8.23442508E-02
   8.30000000E-01  2.04690761E-02  8.47118546E-02
   8.40000000E-01  2.13281726E-02  8.71130327E-02
   8.50000000E-01  2.22114482E-02  8.95476555E-02
   8.60000000E-01  2.31192367E-02  9.20155861E-02
   8.70000000E-01  2.40518705E-02  9.45166795E-02
   8.80000000E-01  2.50096804E-02  9.70507825E-02
   8.90000000E-01  2.59929956E-02  9.96177340E-02
   9.00000000E-01  2.70021440E-02  1.02217364E-01
   9.10000000E-01  2.80374513E-02  1.04849493E-01
   9.20000000E-01  2.90992415E-02  1.07513934E-01
   9.30000000E-01  3.01878370E-02  1.10210489E-01
   9.40000000E-01  3.13035577E-02  1.12938952E-01
   9.50000000E-01  3.24467217E-02  1.15699106E-01
   9.60000000E-01  3.36176447E-02  1.18490723E-01
   9.70000000E-01  3.48166402E-02  1.21313566E-01
   9.80000000E-01  3.60440193E-02  1.24167389E-01
   9.90000000E-01  3.73000904E-02  1.27051931E-01
   1.00000000E+00  3.85851594E-02  1.29966922E-01
   1.01000000E+00  3.98995294E-02  1.32912081E-01
   1.02000000E+00  4.12435006E-02  1.35887115E-01
   1.03000000E+00  4.26173702E-02  1.38891718E-01
   1.04000000E+00  4.40214325E-02  1.41925573E-01
   1.05000000E+00  4.54559781E-02  1.44988350E-01
   1.06000000E+00  4.69212947E-02  1.48079706E-01
   1.07000000E+00  4.84176663E-02  1.51199285E-01
   1.08000000E+00  4.99453733E-02  1.54346719E-01
   1.09000000E+00  5.15046923E-02  1.57521624E-01
   1.10000000E+00  5.30958960E-02  1.60723605E-01
   1.11000000E+00  5.47192532E-02  1.63952250E-01
   1.12000000E+00  5.63750285E-02  1.67207136E-01
   1.13000000E+00  5.80634820E-02  1.70487822E-01
   1.14000000E+00  5.97848694E-02  1.73793856E-01
   1.15000000E+00  6.15394420E-02  1.77124768E-01
   1.16000000E+00  6.33274461E-02  1.80480074E-01
   1.17000000E+00  6.51491231E-02  1.83859274E-01
   1.18000000E+00  6.70047095E-02  1.87261854E-01
   1.19000000E+00  6.88944364E-02  1.90687283E-01
   1.20000000E+00  7.08185295E-02  1.94135013E-01
   1.21000000E+00  7.27772091E-02  1.97604481E-01
   1.22000000E+00  7.47706897E-02  2.01095108E-01
   1.23000000E+00  7.67991798E-02  2.04606297E-01
   1.24000000E+00  7.88628821E-02  2.08137436E-01
   1.25000000E+00  8.09619929E-02  2.11687894E-01
   1.26000000E+00  8.30967022E-02  2.15257025E-01
   1.27000000E+00  8.52671934E-02  2.18844163E-01
   1.28000000E+00  8.74736432E-02  2.22448627E-01
   1.29000000E+00  8.97162214E-02  2.26069718E-01
   1.30000000E+00  9.19950906E-02  2.29706717E-01
   1.31000000E+00  9.43104063E-02  2.33358892E-01
   1.32000000E+00  9.66623165E-02  2.37025487E-01
   1.33000000E+00  9.90509616E-02  2.40705733E-01
   1.34000000E+00  1.01476474E-01  2.44398841E-01
   1.35000000E+00  1.03938979E-01  2.48104001E-01
   1.36000000E+00  1.06438592E-01  2.51820390E-01
   1.37000000E+00  1.08975421E-01  2.55547162E-01
   1.38000000E+00  1.11549567E-01  2.59283455E-01
   1.39000000E+00  1.14161119E-01  2.63028388E-01
   1.40000000E+00  1.16810160E-01  2.66781061E-01
   1.41000000E+00  1.19496763E-01  2.70540555E-01
   1.42000000E+00  1.22220991E-01  2.74305933E-01
   1.43000000E+00  1.24982898E-01  2.78076240E-01
   1.44000000E+00  1.27782529E-01  2.81850501E-01
   1.45000000E+00  1.30619918E-01  2.85627723E-01
   1.46000000E+00  1.33495090E-01  2.89406894E-01
   1.47000000E+00  1.36408059E-01  2.93186984E-01
   1.48000000E+00  1.39358829E-01  2.96966944E-01
   1.49000000E+00  1.42347394E-01  3.00745706E-01
   1.50000000E+00  1.45373735E-01  3.04522186E-01
   1.51000000E+00  1.48437826E-01  3.08295278E-01
   1.52000000E+00  1.51539626E-01  3.12063859E-01
   1.53000000E+00  1.54679084E-01  3.15826790E-01
   1.54000000E+00  1.57856139E-01  3.19582911E-01
   1.55000000E+00  1.61070716E-01  3.23331046E-01
   1.56000000E+00  1.64322729E-01  3.27069999E-01
   1.57000000E+00  1.67612081E-01  3.30798559E-01
   1.58000000E+00  1.70938662E-01  3.34515497E-01
   1.59000000E+00  1.74302348E-01  3.38219564E-01
   1.60000000E+00  1.77703006E-01  3.41909496E-01
   1.61000000E+00  1.81140487E-01  3.45584013E-01
   1.62000000E+00  1.84614631E-01  3.49241815E-01
   1.63000000E+00  1.88125263E-01  3.52881589E-01
   1.64000000E+00  1.91672198E-01  3.56502003E-01
   1.65000000E+00  1.95255234E-01  3.60101711E-01
   1.66000000E+00  1.98874158E-01  3.63679349E-01
   1.67000000E+00  2.02528743E-01  3.67233540E-01
   1.68000000E+00  2.06218746E-01  3.70762890E-01
   1.69000000E+00  2.09943913E-01  3.74265989E-01
   1.70000000E+00  2.13703974E-01  3.77741417E-01
   1.71000000E+00  2.17498645E-01  3.81187734E-01
   1.72000000E+00  2.21327627E-01  3.84603490E-01
   1.73000000E+00  2.25190608E-01  3.87987220E-01
   1.74000000E+00  2.29087260E-01  3.91337446E-01
   1.75000000E+00  2.33017240E-01  3.94652677E-01
   1.76000000E+00  2.36980191E-01  3.97931408E-01
   1.77000000E+00  2.40975741E-01  4.01172126E-01
   1.78000000E+00  2.45003502E-01  4.04373302E-01
   1.79000000E+00  2.49063071E-01  4.07533399E-01
   1.80000000E+00  2.53154028E-01  4.10650865E-01
   1.81000000E+00  2.57275941E-01  4.13724143E-01
   1.82000000E+00  2.61428358E-01  4.16751665E-01
   1.83000000E+00  2.65610816E-01  4.19731850E-01
   1.84000000E+00  2.69822832E-01  4.22663110E-01
   1.85000000E+00  2.74063910E-01  4.25543851E-01
   1.86000000E+00  2.78333536E-01  4.28372469E-01
   1.87000000E+00  2.82631180E-01  4.31147353E-01
   1.88000000E+00  2.86956298E-01  4.33866885E-01
   1.89000000E+00  2.91308328E-01  4.36529440E-01
   1.90000000E+00  2.95686692E-01  4.39133390E-01
   1.91000000E+00  3.00090795E-01  4.41677100E-01
   1.92000000E+00  3.04520027E-01  4.44158930E-01
   1.93000000E+00  3.08973762E-01  4.46577238E-01
   1.94000000E+00  3.13451355E-01  4.48930376E-01
   1.95000000E+00  3.17952147E-01  4.51216697E-01
   1.96000000E+00  3.22475461E-01  4.53434550E-01
   1.97000000E+00  3.27020604E-01  4.55582280E-01
   1.98000000E+00  3.31586867E-01  4.57658238E-01
   1.99000000E+00  3.36173524E-01  4.59660768E-01
   2.00000000E+00  3.40779832E-01  4.61588218E-01
   2.01000000E+00  3.45405032E-01  4.63438938E-01
   2.02000000E+00  3.50048350E-01  4.65211277E-01
   2.03000000E+00  3.54708991E-01  4.66903592E-01
   2.04000000E+00  3.59386149E-01  4.68514237E-01
   2.05000000E+00  3.64078998E-01  4.70041574E-01
   2.06000000E+00  3.68786697E-01  4.71483969E-01
   2.07000000E+00  3.73508389E-01  4.72839794E-01
   2.08000000E+00  3.78243199E-01  4.74107398E-01
   2.09000000E+00  3.82990355E-01  4.75320344E-01
   2.10000000E+00  3.87749538E-01  4.76512925E-01
   2.11000000E+00  3.92520543E-01  4.77684580E-01
   2.12000000E+00  3.97303158E-01  4.78834785E-01
   2.13000000E+00  4.02097166E-01  4.79963011E-01
   2.14000000E+00  4.06902344E-01  4.81068737E-01
   2.15000000E+00  4.11718464E-01  4.82151440E-01
   2.16000000E+00  4.16545294E-01  4.83210600E-01
   2.17000000E+00  4.21382596E-01  4.84245695E-01
   2.18000000E+00  4.26230126E-01  4.85256210E-01
   2.19000000E+00  4.31087636E-01  4.86241629E-01
   2.20000000E+00  4.35954873E-01  4.87201438E-01
   2.21000000E+00  4.40831578E-01  4.88135126E-01
   2.22000000E+00  4.45717487E-01  4.89042182E-01
   2.23000000E+00  4.50612331E-01  4.89922100E-01
   2.24000000E+00  4.55515837E-01  4.90774374E-01
   2.25000000E+00  4.60427725E-01  4.91598499E-01
   2.26000000E+00  4.65347711E-01  4.92393977E-01
   2.27000000E+00  4.70275507E-01  4.93160309E-01
   2.28000000E+00  4.75210819E-01  4.93896999E-01
   2.29000000E+00  4.80153347E-01  4.94603553E-01
   2.30000000E+00  4.85102788E-01  4.95279482E-01
   2.31000000E+00  4.90058833E-01  4.95924298E-01
   2.32000000E+00  4.95021168E-01  4.96537516E-01
   2.33000000E+00  4.99989476E-01  4.97118657E-01
   2.34000000E+00  5.04963433E-01  4.97667238E-01
   2.35000000E+00  5.09942711E-01  4.98182788E-01
   2.36000000E+00  5.14926977E-01  4.98664831E-01
   2.37000000E+00  5.19915894E-01  4.99112900E-01
   2.38000000E+00  5.24909120E-01  4.99526530E-01
   2.39000000E+00  5.29906308E-01  4.99905258E-01
   2.40000000E+00  5.34907107E-01  5.00248628E-01
   2.41000000E+00  5.39911161E-01  5.00556184E-01
   2.42000000E+00  5.44918110E-01  5.00827475E-01
   2.43000000E+00  5.49927589E-01  5.01062056E-01
   2.44000000E+00  5.54939227E-01  5.01259484E-01
   2.45000000E+00  5.59952653E-01  5.01419320E-01
   2.46000000E+00  5.64967487E-01  5.01541130E-01
   2.47000000E+00  5.69983347E-01  5.01624485E-01
   2.48000000E+00  5.74999847E-01  5.01668958E-01
   2.49000000E+00  5.80016596E-01  5.01674130E-01
   2.50000000E+00  5.85033197E-01  5.01639583E-01
   2.51000000E+00  5.90049253E-01  5.01564906E-01
   2.52000000E+00  5.95064360E-01  5.01449692E-01
   2.53000000E+00  6.00078111E-01  5.01293539E-01
   2.54000000E+00  6.05090093E-01  5.01096050E-01
   2.55000000E+00  6.10099893E-01  5.00856832E-01
   2.56000000E+00  6.15107090E-01  5.00575500E-01
   2.57000000E+00  6.20111261E-01  5.00251672E-01
   2.58000000E+00  6.25111980E-01  4.99884971E-01
   2.59000000E+00  6.30108816E-01  4.99475027E-01
   2.60000000E+00  6.35101335E-01  4.99021474E-01
   2.61000000E+00  6.40089099E-01  4.98523952E-01
   2.62000000E+00  6.45071667E-01  4.97982109E-01
   2.63000000E+00  6.50048592E-01  4.97395595E-01
   2.64000000E+00  6.55019428E-01  4.96764067E-01
   2.65000000E+00  6.59983723E-01  4.96087190E-01
   2.66000000E+00  6.64941020E-01  4.95364635E-01
   2.67000000E+00  6.69890862E-01  4.94596074E-01
   2.68000000E+00  6.74832787E-01  4.93781191E-01
   2.69000000E+00  6.79766330E-01  4.92919672E-01
   2.70000000E+00  6.84691024E-01  4.92011215E-01
   2.71000000E+00  6.89606397E-01  4.91055518E-01
   2.72000000E+00  6.94511976E-01  4.90052288E-01
   2.73000000E+00  6.99407284E-01  4.89001240E-01
   2.74000000E+00  7.04291840E-01  4.87902094E-01
   2.75000000E+00  7.09165164E-01  4.86754577E-01
   2.76000000E+00  7.14026770E-01  4.85558423E-01
   2.77000000E+00  7.18876170E-01  4.84313372E-01
   2.78000000E+00  7.23712873E-01  4.83019173E-01
   2.79000000E+00  7.28536389E-01  4.81675579E-01
   2.80000000E+00  7.33346220E-01  4.80282352E-01
   2.81000000E+00  7.38141869E-01  4.78839260E-01
   2.82000000E+00  7.42922838E-01  4.77346079E-01
   2.83000000E+00  7.47688623E-01  4.75802591E-01
   2.84000000E+00  7.52438721E-01  4.74208588E-01
   2.85000000E+00  7.57172626E-01  4.72563867E-01
   2.86000000E+00  7.61889829E-01  4.70868231E-01
   2.87000000E+00  7.66589820E-01  4.69121494E-01
   2.88000000E+00  7.71272088E-01  4.67323475E-01
   2.89000000E+00  7.75936118E-01  4.65474001E-01
   2.90000000E+00  7.80581396E-01  4.63572907E-01
   2.91000000E+00  7.85207404E-01  4.61620036E-01
   2.92000000E+00  7.89813623E-01  4.59615236E-01
   2.93000000E+00  7.94399535E-01  4.57558366E-01
   2.94000000E+00  7.98964617E-01  4.55449292E-01
   2.95000000E+00  8.03508346E-01  4.53287887E-01
   2.96000000E+00  8.08030200E-01  4.51074032E-01
   2.97000000E+00  8.12529652E-01  4.48807615E-01
   2.98000000E+00  8.17006176E-01  4.46488534E-01
   2.99000000E+00  8.21459247E-01  4.44116692E-01
   3.00000000E+00  8.25888334E-01  4.41692004E-01
   3.01000000E+00  8.30292910E-01  4.39214389E-01
   3.02000000E+00  8.34672445E-01  4.36683775E-01
   3.03000000E+00  8.39026409E-01  4.34100100E-01
   3.04000000E+00  8.43354270E-01  4.31463309E-01
   3.05000000E+00  8.47655498E-01  4.28773354E-01
   3.06000000E+00  8.51929560E-01  4.26030196E-01
   3.07000000E+00  8.56175924E-01  4.23233806E-01
   3.08000000E+00  8.60394058E-01  4.20384160E-01
   3.09000000E+00  8.64583430E-01  4.17481244E-01
   3.10000000E+00  8.68743506E-01  4.14525049E-01
   3.11000000E+00  8.72873753E-01  4.11515580E-01
   3.12000000E+00  8.76973640E-01  4.08452846E-01
   3.13000000E+00  8.81042633E-01  4.05336863E-01
   3.14000000E+00  8.85080200E-01  4.02167662E-01
   3.15000000E+00  8.89085809E-01  3.98945279E-01
   3.16000000E+00  8.93058928E-01  3.95669751E-01
   3.17000000E+00  8.96999027E-01  3.92341135E-01
   3.18000000E+00  9.00905574E-01  3.88959491E-01
   3.19000000E+00  9.04778040E-01  3.85524882E-01
   3.20000000E+00  9.08615895E-01  3.82037386E-01
   3.21000000E+00  9.12418612E-01  3.78497090E-01
   3.22000000E+00  9.16185662E-01  3.74904085E-01
   3.23000000E+00  9.19916518E-01  3.71258472E-01
   3.24000000E+00  9.23610656E-01  3.67560363E-01
   3.25000000E+00  9.27267551E-01  3.63809873E-01
   3.26000000E+00  9.30886679E-01  3.60007128E-01
   3.27000000E+00  9.34467520E-01  3.56152263E-01
   3.28000000E+00  9.38009551E-01  3.52245422E-01
   3.29000000E+00  9.41512255E-01  3.48286754E-01
   3.30000000E+00  9.44975114E-01  3.44276420E-01
   3.31000000E+00  9.48397612E-01  3.40214584E-01
   3.32000000E+00  9.51779235E-01  3.36101422E-01
   3.33000000E+00  9.55119470E-01  3.31937122E-01
   3.34000000E+00  9.58417807E-01  3.27721872E-01
   3.35000000E+00  9.61673738E-01  3.23455871E-01
   3.36000000E+00  9.64886756E-01  3.19139331E-01
   3.37000000E+00  9.68056357E-01  3.14772469E-01
   3.38000000E+00  9.71182039E-01  3.10355504E-01
   3.39000000E+00  9.74263301E-01  3.05888669E-01
   3.40000000E+00  9.77299647E-01  3.01372206E-01
   3.41000000E+00  9.80290580E-01  2.96806365E-01
   3.42000000E+00  9.83235610E-01  2.92191402E-01
   3.43000000E+00  9.86134246E-01  2.87527578E-01
   3.44000000E+00  9.88986000E-01  2.82815166E-01
   3.45000000E+00  9.91790388E-01  2.78054447E-01
   3.46000000E+00  9.94546929E-01  2.73245710E-01
   3.47000000E+00  9.97255143E-01  2.68389251E-01
   3.48000000E+00  9.99914556E-01  2.63485374E-01
   3.49000000E+00  1.00252469E+00  2.58534391E-01
   3.50000000E+00  1.00508509E+00  2.53536617E-01
   3.51000000E+00  1.00759527E+00  2.48492380E-01
   3.52000000E+00  1.01005478E+00  2.43402018E-01
   3.53000000E+00  1.01246316E+00  2.38265869E-01
   3.54000000E+00  1.01481995E+00  2.33084282E-01
   3.55000000E+00  1.01712469E+00  2.27857615E-01
   3.56000000E+00  1.01937695E+00  2.22586236E-01
   3.57000000E+00  1.02157627E+00  2.17270510E-01
   3.58000000E+00  1.02372221E+00  2.11910818E-01
   3.59000000E+00  1.02581434E+00  2.06507551E-01
   3.60000000E+00  1.02785222E+00  2.01061102E-01
   3.61000000E+00  1.02983542E+00  1.95571867E-01
   3.62000000E+00  1.03176352E+00  1.90040257E-01
   3.63000000E+00  1.03363609E+00  1.84466688E-01
   3.64000000E+00  1.03545271E+00  1.78851582E-01
   3.65000000E+00  1.03721298E+00  1.73195368E-01
   3.66000000E+00  1.03891648E+00  1.67498481E-01
   3.67000000E+00  1.04056282E+00  1.61761367E-01
   3.68000000E+00  1.04215158E+00  1.55984472E-01
   3.69000000E+00  1.04368238E+00  1.50168255E-01
   3.70000000E+00  1.04515481E+00  1.44313182E-01
   3.71000000E+00  1.04656851E+00  1.38419723E-01
   3.72000000E+00  1.04792308E+00  1.32488351E-01
   3.73000000E+00  1.04921815E+00  1.26519551E-01
   3.74000000E+00  1.05045335E+00  1.20513814E-01
   3.75000000E+00  1.05162831E+00  1.14471635E-01
   3.76000000E+00  1.05274266E+00  1.08393517E-01
   3.77000000E+00  1.05379606E+00  1.02279970E-01
   3.78000000E+00  1.05478815E+00  9.61315065E-02
   3.79000000E+00  1.05571858E+00  8.99486459E-02
   3.80000000E+00  1.05658701E+00  8.37319206E-02
   3.81000000E+00  1.05739310E+00  7.74818628E-02
   3.82000000E+00  1.05813653E+00  7.11990103E-02
   3.83000000E+00  1.05881698E+00  6.48839088E-02
   3.84000000E+00  1.05943411E+00  5.85371081E-02
   3.85000000E+00  1.05998761E+00  5.21591658E-02
   3.86000000E+00  1.06047719E+00  4.57506477E-02
   3.87000000E+00  1.06090253E+00  3.93121202E-02
   3.88000000E+00  1.06126333E+00  3.28441546E-02
   3.89000000E+00  1.06155931E+00  2.63473294E-02
   3.90000000E+00  1.06179019E+00  1.98222309E-02
