 # Radial wave functions calculated by RADIAL.
 # **** Schrodinger Eq. Numerical potential.
 #      Input potential file: potential_1A1.dat   
 #      Free state: E= 1.359724E+00, L=   3  (EPS= 1.0E-15)
 #        Inner phase shift= 3.687564838237076E-01
 #      Coulomb phase shift=-7.646775709950101E-01  (ETA=-6.064145E-01)
 #      Matching radius: RAD(  847)= 8.460000000000001E+00
 #       R              P(R)            Q(R)
   0.00000000E+00  0.00000000E+00  0.00000000E+00
   1.00000000E-02  5.85652034E-09  2.33390968E-06
   2.00000000E-02  9.23296494E-08  1.83301533E-05
   3.00000000E-02  4.60629030E-07  6.07465200E-05
   4.00000000E-02  1.43487483E-06  1.41418813E-04
   5.00000000E-02  3.45321285E-06  2.71326873E-04
   6.00000000E-02  7.05956090E-06  4.60654835E-04
   7.00000000E-02  1.28959298E-05  7.18845831E-04
   8.00000000E-02  2.16952648E-05  1.05465146E-03
   9.00000000E-02  3.42747575E-05  1.47617647E-03
   1.00000000E-01  5.15295828E-05  1.99091910E-03
   1.10000000E-01  7.44270188E-05  2.60580761E-03
   1.20000000E-01  1.04000915E-04  3.32723333E-03
   1.30000000E-01  1.41346478E-04  4.16108074E-03
   1.40000000E-01  1.87615337E-04  5.11275502E-03
   1.50000000E-01  2.44010886E-04  6.18720726E-03
   1.60000000E-01  3.11783855E-04  7.38895776E-03
   1.70000000E-01  3.92228116E-04  8.72211774E-03
   1.80000000E-01  4.86676690E-04  1.01904094E-02
   1.90000000E-01  5.96497956E-04  1.17971850E-02
   2.00000000E-01  7.23092040E-04  1.35454444E-02
   2.10000000E-01  8.67887374E-04  1.54378523E-02
   2.20000000E-01  1.03233743E-03  1.74767544E-02
   2.30000000E-01  1.21791761E-03  1.96641920E-02
   2.40000000E-01  1.42612226E-03  2.20019176E-02
   2.50000000E-01  1.65846188E-03  2.44914083E-02
   2.60000000E-01  1.91646039E-03  2.71338795E-02
   2.70000000E-01  2.20165265E-03  2.99302978E-02
   2.80000000E-01  2.51558197E-03  3.28813937E-02
   2.90000000E-01  2.85979783E-03  3.59876734E-02
   3.00000000E-01  3.23585371E-03  3.92494303E-02
   3.10000000E-01  3.64530502E-03  4.26667565E-02
   3.20000000E-01  4.08970710E-03  4.62395529E-02
   3.30000000E-01  4.57061340E-03  4.99675402E-02
   3.40000000E-01  5.08957372E-03  5.38502684E-02
   3.50000000E-01  5.64813255E-03  5.78871259E-02
   3.60000000E-01  6.24782748E-03  6.20773497E-02
   3.70000000E-01  6.89018775E-03  6.64200326E-02
   3.80000000E-01  7.57673287E-03  7.09141322E-02
   3.90000000E-01  8.30897124E-03  7.55584794E-02
   4.00000000E-01  9.08839899E-03  8.03517849E-02
   4.10000000E-01  9.91649880E-03  8.52926467E-02
   4.20000000E-01  1.07947388E-02  9.03795569E-02
   4.30000000E-01  1.17245714E-02  9.56109084E-02
   4.40000000E-01  1.27074327E-02  1.00985001E-01
   4.50000000E-01  1.37447413E-02  1.06500045E-01
   4.60000000E-01  1.48378973E-02  1.12154170E-01
   4.70000000E-01  1.59882818E-02  1.17945429E-01
   4.80000000E-01  1.71972562E-02  1.23871800E-01
   4.90000000E-01  1.84661612E-02  1.29931195E-01
   5.00000000E-01  1.97963164E-02  1.36121460E-01
   5.10000000E-01  2.11890193E-02  1.42440383E-01
   5.20000000E-01  2.26455453E-02  1.48885694E-01
   5.30000000E-01  2.41671467E-02  1.55455069E-01
   5.40000000E-01  2.57550523E-02  1.62146135E-01
   5.50000000E-01  2.74104670E-02  1.68956472E-01
   5.60000000E-01  2.91345711E-02  1.75883613E-01
   5.70000000E-01  3.09285203E-02  1.82925049E-01
   5.80000000E-01  3.27934446E-02  1.90078231E-01
   5.90000000E-01  3.47304487E-02  1.97340573E-01
   6.00000000E-01  3.67406112E-02  2.04709450E-01
   6.10000000E-01  3.88249840E-02  2.12182203E-01
   6.20000000E-01  4.09845925E-02  2.19756138E-01
   6.30000000E-01  4.32204350E-02  2.27428529E-01
   6.40000000E-01  4.55334821E-02  2.35196619E-01
   6.50000000E-01  4.79246771E-02  2.43057620E-01
   6.60000000E-01  5.03949348E-02  2.51008714E-01
   6.70000000E-01  5.29451422E-02  2.59047056E-01
   6.80000000E-01  5.55761572E-02  2.67169770E-01
   6.90000000E-01  5.82888091E-02  2.75373954E-01
   7.00000000E-01  6.10838981E-02  2.83656677E-01
   7.10000000E-01  6.39621946E-02  2.92014984E-01
   7.20000000E-01  6.69244397E-02  3.00445888E-01
   7.30000000E-01  6.99713444E-02  3.08946379E-01
   7.40000000E-01  7.31035892E-02  3.17513420E-01
   7.50000000E-01  7.63218244E-02  3.26143945E-01
   7.60000000E-01  7.96266694E-02  3.34834864E-01
   7.70000000E-01  8.30187126E-02  3.43583058E-01
   7.80000000E-01  8.64985110E-02  3.52385383E-01
   7.90000000E-01  9.00665901E-02  3.61238667E-01
   8.00000000E-01  9.37234435E-02  3.70139711E-01
   8.10000000E-01  9.74695328E-02  3.79085289E-01
   8.20000000E-01  1.01305287E-01  3.88072144E-01
   8.30000000E-01  1.05231102E-01  3.97096995E-01
   8.40000000E-01  1.09247342E-01  4.06156533E-01
   8.50000000E-01  1.13354337E-01  4.15247417E-01
   8.60000000E-01  1.17552384E-01  4.24366279E-01
   8.70000000E-01  1.21841745E-01  4.33509724E-01
   8.80000000E-01  1.26222649E-01  4.42674326E-01
   8.90000000E-01  1.30695290E-01  4.51856628E-01
   9.00000000E-01  1.35259829E-01  4.61053144E-01
   9.10000000E-01  1.39916389E-01  4.70260359E-01
   9.20000000E-01  1.44665060E-01  4.79474725E-01
   9.30000000E-01  1.49505895E-01  4.88692667E-01
   9.40000000E-01  1.54438913E-01  4.97910577E-01
   9.50000000E-01  1.59464095E-01  5.07124816E-01
   9.60000000E-01  1.64581385E-01  5.16331715E-01
   9.70000000E-01  1.69790692E-01  5.25527574E-01
   9.80000000E-01  1.75091887E-01  5.34708657E-01
   9.90000000E-01  1.80484804E-01  5.43871202E-01
   1.00000000E+00  1.85969237E-01  5.53011413E-01
   1.01000000E+00  1.91544945E-01  5.62125465E-01
   1.02000000E+00  1.97211646E-01  5.71209501E-01
   1.03000000E+00  2.02969022E-01  5.80259633E-01
   1.04000000E+00  2.08816713E-01  5.89271932E-01
   1.05000000E+00  2.14754321E-01  5.98242455E-01
   1.06000000E+00  2.20781409E-01  6.07167218E-01
   1.07000000E+00  2.26897500E-01  6.16042207E-01
   1.08000000E+00  2.33102074E-01  6.24863379E-01
   1.09000000E+00  2.39394574E-01  6.33626661E-01
   1.10000000E+00  2.45774401E-01  6.42327951E-01
   1.11000000E+00  2.52240913E-01  6.50963116E-01
   1.12000000E+00  2.58793429E-01  6.59527998E-01
   1.13000000E+00  2.65431224E-01  6.68018405E-01
   1.14000000E+00  2.72153534E-01  6.76430124E-01
   1.15000000E+00  2.78959551E-01  6.84758911E-01
   1.16000000E+00  2.85848422E-01  6.93000499E-01
   1.17000000E+00  2.92819256E-01  7.01150591E-01
   1.18000000E+00  2.99871114E-01  7.09204869E-01
   1.19000000E+00  3.07003019E-01  7.17158991E-01
   1.20000000E+00  3.14213946E-01  7.25008591E-01
   1.21000000E+00  3.21502828E-01  7.32749281E-01
   1.22000000E+00  3.28868554E-01  7.40376652E-01
   1.23000000E+00  3.36309968E-01  7.47886278E-01
   1.24000000E+00  3.43825872E-01  7.55273710E-01
   1.25000000E+00  3.51415020E-01  7.62534485E-01
   1.26000000E+00  3.59076125E-01  7.69664120E-01
   1.27000000E+00  3.66807851E-01  7.76658120E-01
   1.28000000E+00  3.74608820E-01  7.83511977E-01
   1.29000000E+00  3.82477608E-01  7.90221167E-01
   1.30000000E+00  3.90412746E-01  7.96781160E-01
   1.31000000E+00  3.98412719E-01  8.03187412E-01
   1.32000000E+00  4.06475967E-01  8.09435374E-01
   1.33000000E+00  4.14600883E-01  8.15520490E-01
   1.34000000E+00  4.22785818E-01  8.21438200E-01
   1.35000000E+00  4.31029074E-01  8.27183940E-01
   1.36000000E+00  4.39328909E-01  8.32753146E-01
   1.37000000E+00  4.47683533E-01  8.38141256E-01
   1.38000000E+00  4.56091115E-01  8.43343707E-01
   1.39000000E+00  4.64549774E-01  8.48355945E-01
   1.40000000E+00  4.73057585E-01  8.53173420E-01
   1.41000000E+00  4.81612578E-01  8.57791592E-01
   1.42000000E+00  4.90212737E-01  8.62205930E-01
   1.43000000E+00  4.98856002E-01  8.66411916E-01
   1.44000000E+00  5.07540266E-01  8.70405052E-01
   1.45000000E+00  5.16263378E-01  8.74180850E-01
   1.46000000E+00  5.25023143E-01  8.77734844E-01
   1.47000000E+00  5.33817321E-01  8.81062593E-01
   1.48000000E+00  5.42643626E-01  8.84159675E-01
   1.49000000E+00  5.51499731E-01  8.87021700E-01
   1.50000000E+00  5.60383262E-01  8.89644302E-01
   1.51000000E+00  5.69291804E-01  8.92023150E-01
   1.52000000E+00  5.78222898E-01  8.94153945E-01
   1.53000000E+00  5.87174042E-01  8.96032424E-01
   1.54000000E+00  5.96142692E-01  8.97654366E-01
   1.55000000E+00  6.05126261E-01  8.99015588E-01
   1.56000000E+00  6.14122121E-01  9.00111954E-01
   1.57000000E+00  6.23127603E-01  9.00939376E-01
   1.58000000E+00  6.32139998E-01  9.01493812E-01
   1.59000000E+00  6.41156556E-01  9.01771277E-01
   1.60000000E+00  6.50174487E-01  9.01767836E-01
   1.61000000E+00  6.59190964E-01  9.01479615E-01
   1.62000000E+00  6.68203118E-01  9.00902804E-01
   1.63000000E+00  6.77208045E-01  9.00033651E-01
   1.64000000E+00  6.86202804E-01  8.98868473E-01
   1.65000000E+00  6.95184416E-01  8.97403657E-01
   1.66000000E+00  7.04149867E-01  8.95635662E-01
   1.67000000E+00  7.13096107E-01  8.93561022E-01
   1.68000000E+00  7.22020054E-01  8.91176350E-01
   1.69000000E+00  7.30918589E-01  8.88478336E-01
   1.70000000E+00  7.39788565E-01  8.85463761E-01
   1.71000000E+00  7.48626799E-01  8.82129487E-01
   1.72000000E+00  7.57430079E-01  8.78472470E-01
   1.73000000E+00  7.66195163E-01  8.74489753E-01
   1.74000000E+00  7.74918779E-01  8.70178483E-01
   1.75000000E+00  7.83597628E-01  8.65535899E-01
   1.76000000E+00  7.92228384E-01  8.60559346E-01
   1.77000000E+00  8.00807693E-01  8.55246271E-01
   1.78000000E+00  8.09332179E-01  8.49594230E-01
   1.79000000E+00  8.17798440E-01  8.43600884E-01
   1.80000000E+00  8.26203052E-01  8.37264017E-01
   1.81000000E+00  8.34542568E-01  8.30581520E-01
   1.82000000E+00  8.42813523E-01  8.23551410E-01
   1.83000000E+00  8.51012432E-01  8.16171822E-01
   1.84000000E+00  8.59135789E-01  8.08441016E-01
   1.85000000E+00  8.67180076E-01  8.00357380E-01
   1.86000000E+00  8.75141756E-01  7.91919433E-01
   1.87000000E+00  8.83017279E-01  7.83125827E-01
   1.88000000E+00  8.90803083E-01  7.73975347E-01
   1.89000000E+00  8.98495593E-01  7.64466917E-01
   1.90000000E+00  9.06091225E-01  7.54599608E-01
   1.91000000E+00  9.13586386E-01  7.44372624E-01
   1.92000000E+00  9.20977476E-01  7.33785323E-01
   1.93000000E+00  9.28260890E-01  7.22837210E-01
   1.94000000E+00  9.35433016E-01  7.11527940E-01
   1.95000000E+00  9.42490244E-01  6.99857321E-01
   1.96000000E+00  9.49428958E-01  6.87825317E-01
   1.97000000E+00  9.56245546E-01  6.75432052E-01
   1.98000000E+00  9.62936396E-01  6.62677809E-01
   1.99000000E+00  9.69497900E-01  6.49563028E-01
   2.00000000E+00  9.75926457E-01  6.36088323E-01
   2.01000000E+00  9.82218470E-01  6.22254468E-01
   2.02000000E+00  9.88370352E-01  6.08062411E-01
   2.03000000E+00  9.94378528E-01  5.93513262E-01
   2.04000000E+00  1.00023943E+00  5.78608313E-01
   2.05000000E+00  1.00594951E+00  5.63349023E-01
   2.06000000E+00  1.01150524E+00  5.47737028E-01
   2.07000000E+00  1.01690308E+00  5.31774144E-01
   2.08000000E+00  1.02213956E+00  5.15462287E-01
   2.09000000E+00  1.02721149E+00  4.98898219E-01
   2.10000000E+00  1.03211700E+00  4.82178885E-01
   2.11000000E+00  1.03685456E+00  4.65306647E-01
   2.12000000E+00  1.04142263E+00  4.48284004E-01
   2.13000000E+00  1.04581974E+00  4.31113511E-01
   2.14000000E+00  1.05004442E+00  4.13797785E-01
   2.15000000E+00  1.05409522E+00  3.96339499E-01
   2.16000000E+00  1.05797074E+00  3.78741386E-01
   2.17000000E+00  1.06166960E+00  3.61006235E-01
   2.18000000E+00  1.06519042E+00  3.43136889E-01
   2.19000000E+00  1.06853190E+00  3.25136255E-01
   2.20000000E+00  1.07169272E+00  3.07007293E-01
   2.21000000E+00  1.07467162E+00  2.88753022E-01
   2.22000000E+00  1.07746737E+00  2.70376513E-01
   2.23000000E+00  1.08007876E+00  2.51880900E-01
   2.24000000E+00  1.08250460E+00  2.33269368E-01
   2.25000000E+00  1.08474377E+00  2.14545157E-01
   2.26000000E+00  1.08679514E+00  1.95711564E-01
   2.27000000E+00  1.08865765E+00  1.76771941E-01
   2.28000000E+00  1.09033024E+00  1.57729694E-01
   2.29000000E+00  1.09181191E+00  1.38588282E-01
   2.30000000E+00  1.09310169E+00  1.19351215E-01
   2.31000000E+00  1.09419863E+00  1.00022059E-01
   2.32000000E+00  1.09510183E+00  8.06044310E-02
   2.33000000E+00  1.09581043E+00  6.11019983E-02
   2.34000000E+00  1.09632360E+00  4.15184816E-02
   2.35000000E+00  1.09664054E+00  2.18576481E-02
   2.36000000E+00  1.09676051E+00  2.12331896E-03
   2.37000000E+00  1.09668278E+00 -1.76806416E-02
   2.38000000E+00  1.09640668E+00 -3.75503156E-02
   2.39000000E+00  1.09593157E+00 -5.74817411E-02
   2.40000000E+00  1.09525685E+00 -7.74709095E-02
   2.41000000E+00  1.09438197E+00 -9.75137639E-02
   2.42000000E+00  1.09330641E+00 -1.17606204E-01
   2.43000000E+00  1.09202969E+00 -1.37744088E-01
   2.44000000E+00  1.09055139E+00 -1.57923226E-01
   2.45000000E+00  1.08887111E+00 -1.78139390E-01
   2.46000000E+00  1.08698849E+00 -1.98388310E-01
   2.47000000E+00  1.08490325E+00 -2.18665677E-01
   2.48000000E+00  1.08261510E+00 -2.38967136E-01
   2.49000000E+00  1.08012384E+00 -2.59288303E-01
   2.50000000E+00  1.07742928E+00 -2.79624751E-01
   2.51000000E+00  1.07453131E+00 -2.99972019E-01
   2.52000000E+00  1.07142982E+00 -3.20325610E-01
   2.53000000E+00  1.06812479E+00 -3.40680994E-01
   2.54000000E+00  1.06461621E+00 -3.61033606E-01
   2.55000000E+00  1.06090414E+00 -3.81378853E-01
   2.56000000E+00  1.05698867E+00 -4.01712109E-01
   2.57000000E+00  1.05286995E+00 -4.22028720E-01
   2.58000000E+00  1.04854817E+00 -4.42324004E-01
   2.59000000E+00  1.04402356E+00 -4.62593252E-01
   2.60000000E+00  1.03929641E+00 -4.82831729E-01
   2.61000000E+00  1.03436704E+00 -5.03034674E-01
   2.62000000E+00  1.02923585E+00 -5.23197308E-01
   2.63000000E+00  1.02390325E+00 -5.43314827E-01
   2.64000000E+00  1.01836972E+00 -5.63382410E-01
   2.65000000E+00  1.01263578E+00 -5.83395214E-01
   2.66000000E+00  1.00670201E+00 -6.03348378E-01
   2.67000000E+00  1.00056903E+00 -6.23237030E-01
   2.68000000E+00  9.94237504E-01 -6.43056278E-01
   2.69000000E+00  9.87708152E-01 -6.62801219E-01
   2.70000000E+00  9.80981743E-01 -6.82466942E-01
   2.71000000E+00  9.74059094E-01 -7.02048518E-01
   2.72000000E+00  9.66941070E-01 -7.21541017E-01
   2.73000000E+00  9.59628587E-01 -7.40939496E-01
   2.74000000E+00  9.52122610E-01 -7.60239012E-01
   2.75000000E+00  9.44424153E-01 -7.79434612E-01
   2.76000000E+00  9.36534280E-01 -7.98521342E-01
   2.77000000E+00  9.28454106E-01 -8.17494250E-01
   2.78000000E+00  9.20184791E-01 -8.36348384E-01
   2.79000000E+00  9.11727550E-01 -8.55078790E-01
   2.80000000E+00  9.03083644E-01 -8.73680521E-01
   2.81000000E+00  8.94254385E-01 -8.92148634E-01
   2.82000000E+00  8.85241134E-01 -9.10478193E-01
   2.83000000E+00  8.76045300E-01 -9.28664269E-01
   2.84000000E+00  8.66668343E-01 -9.46701947E-01
   2.85000000E+00  8.57111772E-01 -9.64586320E-01
   2.86000000E+00  8.47377144E-01 -9.82312497E-01
   2.87000000E+00  8.37466065E-01 -9.99875598E-01
   2.88000000E+00  8.27380192E-01 -1.01727076E+00
   2.89000000E+00  8.17121226E-01 -1.03449315E+00
   2.90000000E+00  8.06690921E-01 -1.05153793E+00
   2.91000000E+00  7.96091076E-01 -1.06840030E+00
   2.92000000E+00  7.85323539E-01 -1.08507549E+00
   2.93000000E+00  7.74390206E-01 -1.10155874E+00
   2.94000000E+00  7.63293020E-01 -1.11784532E+00
   2.95000000E+00  7.52033971E-01 -1.13393053E+00
   2.96000000E+00  7.40615096E-01 -1.14980970E+00
   2.97000000E+00  7.29038479E-01 -1.16547818E+00
   2.98000000E+00  7.17306250E-01 -1.18093139E+00
   2.99000000E+00  7.05420584E-01 -1.19616473E+00
   3.00000000E+00  6.93383703E-01 -1.21117367E+00
   3.01000000E+00  6.81197874E-01 -1.22595372E+00
   3.02000000E+00  6.68865407E-01 -1.24050041E+00
   3.03000000E+00  6.56388658E-01 -1.25480932E+00
   3.04000000E+00  6.43770027E-01 -1.26887608E+00
   3.05000000E+00  6.31011958E-01 -1.28269636E+00
   3.06000000E+00  6.18116936E-01 -1.29626586E+00
   3.07000000E+00  6.05087491E-01 -1.30958035E+00
   3.08000000E+00  5.91926193E-01 -1.32263563E+00
   3.09000000E+00  5.78635656E-01 -1.33542757E+00
   3.10000000E+00  5.65218533E-01 -1.34795207E+00
   3.11000000E+00  5.51677520E-01 -1.36020509E+00
   3.12000000E+00  5.38015350E-01 -1.37218267E+00
   3.13000000E+00  5.24234798E-01 -1.38388086E+00
   3.14000000E+00  5.10338677E-01 -1.39529581E+00
   3.15000000E+00  4.96329838E-01 -1.40642371E+00
   3.16000000E+00  4.82211172E-01 -1.41726080E+00
   3.17000000E+00  4.67985604E-01 -1.42780341E+00
   3.18000000E+00  4.53656097E-01 -1.43804791E+00
   3.19000000E+00  4.39225651E-01 -1.44799074E+00
   3.20000000E+00  4.24697300E-01 -1.45762842E+00
   3.21000000E+00  4.10074112E-01 -1.46695752E+00
   3.22000000E+00  3.95359189E-01 -1.47597469E+00
   3.23000000E+00  3.80555669E-01 -1.48467664E+00
   3.24000000E+00  3.65666718E-01 -1.49306017E+00
   3.25000000E+00  3.50695537E-01 -1.50112214E+00
   3.26000000E+00  3.35645357E-01 -1.50885948E+00
   3.27000000E+00  3.20519440E-01 -1.51626920E+00
   3.28000000E+00  3.05321075E-01 -1.52334840E+00
   3.29000000E+00  2.90053583E-01 -1.53009424E+00
   3.30000000E+00  2.74720310E-01 -1.53650397E+00
   3.31000000E+00  2.59324633E-01 -1.54257492E+00
   3.32000000E+00  2.43869950E-01 -1.54830449E+00
   3.33000000E+00  2.28359689E-01 -1.55369018E+00
   3.34000000E+00  2.12797301E-01 -1.55872955E+00
   3.35000000E+00  1.97186260E-01 -1.56342028E+00
   3.36000000E+00  1.81530065E-01 -1.56776010E+00
   3.37000000E+00  1.65832235E-01 -1.57174685E+00
   3.38000000E+00  1.50096312E-01 -1.57537846E+00
   3.39000000E+00  1.34325856E-01 -1.57865292E+00
   3.40000000E+00  1.18524450E-01 -1.58156834E+00
   3.41000000E+00  1.02695692E-01 -1.58412292E+00
   3.42000000E+00  8.68432002E-02 -1.58631493E+00
   3.43000000E+00  7.09706077E-02 -1.58814275E+00
   3.44000000E+00  5.50815642E-02 -1.58960485E+00
   3.45000000E+00  3.91797345E-02 -1.59069980E+00
   3.46000000E+00  2.32687967E-02 -1.59142624E+00
   3.47000000E+00  7.35244218E-03 -1.59178294E+00
   3.48000000E+00 -8.56562572E-03 -1.59176874E+00
   3.49000000E+00 -2.44816927E-02 -1.59138259E+00
   3.50000000E+00 -4.03920346E-02 -1.59062355E+00
   3.51000000E+00 -5.62929178E-02 -1.58949074E+00
   3.52000000E+00 -7.21806010E-02 -1.58798343E+00
   3.53000000E+00 -8.80513358E-02 -1.58610094E+00
   3.54000000E+00 -1.03901367E-01 -1.58384273E+00
   3.55000000E+00 -1.19726936E-01 -1.58120833E+00
   3.56000000E+00 -1.35524279E-01 -1.57819740E+00
   3.57000000E+00 -1.51289628E-01 -1.57480968E+00
   3.58000000E+00 -1.67019216E-01 -1.57104502E+00
   3.59000000E+00 -1.82709272E-01 -1.56690337E+00
   3.60000000E+00 -1.98356027E-01 -1.56238479E+00
   3.61000000E+00 -2.13955712E-01 -1.55748943E+00
   3.62000000E+00 -2.29504561E-01 -1.55221756E+00
   3.63000000E+00 -2.44998809E-01 -1.54656955E+00
   3.64000000E+00 -2.60434699E-01 -1.54054585E+00
   3.65000000E+00 -2.75808476E-01 -1.53414705E+00
   3.66000000E+00 -2.91116392E-01 -1.52737382E+00
   3.67000000E+00 -3.06354707E-01 -1.52022695E+00
   3.68000000E+00 -3.21519689E-01 -1.51270732E+00
   3.69000000E+00 -3.36607614E-01 -1.50481593E+00
   3.70000000E+00 -3.51614772E-01 -1.49655386E+00
   3.71000000E+00 -3.66537460E-01 -1.48792232E+00
   3.72000000E+00 -3.81371991E-01 -1.47892262E+00
   3.73000000E+00 -3.96114690E-01 -1.46955617E+00
   3.74000000E+00 -4.10761897E-01 -1.45982447E+00
   3.75000000E+00 -4.25309967E-01 -1.44972915E+00
   3.76000000E+00 -4.39755273E-01 -1.43927193E+00
   3.77000000E+00 -4.54094205E-01 -1.42845464E+00
   3.78000000E+00 -4.68323172E-01 -1.41727921E+00
   3.79000000E+00 -4.82438603E-01 -1.40574767E+00
   3.80000000E+00 -4.96436946E-01 -1.39386215E+00
   3.81000000E+00 -5.10314673E-01 -1.38162491E+00
   3.82000000E+00 -5.24068279E-01 -1.36903827E+00
   3.83000000E+00 -5.37694282E-01 -1.35610468E+00
   3.84000000E+00 -5.51189225E-01 -1.34282668E+00
   3.85000000E+00 -5.64549677E-01 -1.32920693E+00
   3.86000000E+00 -5.77772233E-01 -1.31524817E+00
   3.87000000E+00 -5.90853519E-01 -1.30095324E+00
   3.88000000E+00 -6.03790187E-01 -1.28632509E+00
   3.89000000E+00 -6.16578921E-01 -1.27136677E+00
   3.90000000E+00 -6.29216433E-01 -1.25608142E+00
