 # Radial wave functions calculated by RADIAL.
 # **** Schrodinger Eq. Numerical potential.
 #      Input potential file: potential_1A1.dat   
 #      Free state: E= 1.359724E+00, L=   2  (EPS= 1.0E-15)
 #        Inner phase shift=-7.869260798543110E-13
 #      Coulomb phase shift=-5.652136601100474E-01  (ETA=-6.064006E-01)
 #      Matching radius: RAD(    6)= 5.000000000000000E-02
 #       R              P(R)            Q(R)
   0.00000000E+00  0.00000000E+00  0.00000000E+00
   1.00000000E-02  7.18842333E-07  2.15432272E-04
   2.00000000E-02  5.73072650E-06  8.57585216E-04
   3.00000000E-02  1.92748640E-05  1.92089442E-03
   4.00000000E-02  4.55307917E-05  3.39892201E-03
   5.00000000E-02  8.86155073E-05  5.28560724E-03
   6.00000000E-02  1.52584072E-04  7.57462959E-03
   7.00000000E-02  2.41427805E-04  1.02595600E-02
   8.00000000E-02  3.59073183E-04  1.33338599E-02
   9.00000000E-02  5.09380758E-04  1.67908829E-02
   1.00000000E-01  6.96144090E-04  2.06238776E-02
   1.10000000E-01  9.23088714E-04  2.48259904E-02
   1.20000000E-01  1.19387112E-03  2.93902679E-02
   1.30000000E-01  1.51207780E-03  3.43096602E-02
   1.40000000E-01  1.88122424E-03  3.95770233E-02
   1.50000000E-01  2.30475406E-03  4.51851227E-02
   1.60000000E-01  2.78603808E-03  5.11266354E-02
   1.70000000E-01  3.32837346E-03  5.73941538E-02
   1.80000000E-01  3.93498288E-03  6.39801878E-02
   1.90000000E-01  4.60901372E-03  7.08771683E-02
   2.00000000E-01  5.35353726E-03  7.80774500E-02
   2.10000000E-01  6.17154800E-03  8.55733146E-02
   2.20000000E-01  7.06596288E-03  9.33569733E-02
   2.30000000E-01  8.03962060E-03  1.01420570E-01
   2.40000000E-01  9.09528102E-03  1.09756186E-01
   2.50000000E-01  1.02356245E-02  1.18355839E-01
   2.60000000E-01  1.14632511E-02  1.27211491E-01
   2.70000000E-01  1.27806806E-02  1.36315048E-01
   2.80000000E-01  1.41903513E-02  1.45658363E-01
   2.90000000E-01  1.56946198E-02  1.55233242E-01
   3.00000000E-01  1.72957606E-02  1.65031445E-01
   3.10000000E-01  1.89959655E-02  1.75044689E-01
   3.20000000E-01  2.07973434E-02  1.85264650E-01
   3.30000000E-01  2.27019197E-02  1.95682969E-01
   3.40000000E-01  2.47116360E-02  2.06291255E-01
   3.50000000E-01  2.68283499E-02  2.17081083E-01
   3.60000000E-01  2.90538346E-02  2.28044003E-01
   3.70000000E-01  3.13897787E-02  2.39171541E-01
   3.80000000E-01  3.38377859E-02  2.50455201E-01
   3.90000000E-01  3.63993748E-02  2.61886470E-01
   4.00000000E-01  3.90759789E-02  2.73456818E-01
   4.10000000E-01  4.18689463E-02  2.85157706E-01
   4.20000000E-01  4.47795396E-02  2.96980583E-01
   4.30000000E-01  4.78089360E-02  3.08916895E-01
   4.40000000E-01  5.09582271E-02  3.20958083E-01
   4.50000000E-01  5.42284187E-02  3.33095589E-01
   4.60000000E-01  5.76204314E-02  3.45320860E-01
   4.70000000E-01  6.11351000E-02  3.57625347E-01
   4.80000000E-01  6.47731739E-02  3.70000511E-01
   4.90000000E-01  6.85353174E-02  3.82437825E-01
   5.00000000E-01  7.24221092E-02  3.94928778E-01
   5.10000000E-01  7.64340434E-02  4.07464878E-01
   5.20000000E-01  8.05715290E-02  4.20037651E-01
   5.30000000E-01  8.48348905E-02  4.32638650E-01
   5.40000000E-01  8.92243681E-02  4.45259454E-01
   5.50000000E-01  9.37401177E-02  4.57891672E-01
   5.60000000E-01  9.83822117E-02  4.70526946E-01
   5.70000000E-01  1.03150639E-01  4.83156952E-01
   5.80000000E-01  1.08045306E-01  4.95773406E-01
   5.90000000E-01  1.13066034E-01  5.08368065E-01
   6.00000000E-01  1.18212567E-01  5.20932730E-01
   6.10000000E-01  1.23484562E-01  5.33459248E-01
   6.20000000E-01  1.28881598E-01  5.45939517E-01
   6.30000000E-01  1.34403171E-01  5.58365485E-01
   6.40000000E-01  1.40048700E-01  5.70729157E-01
   6.50000000E-01  1.45817520E-01  5.83022594E-01
   6.60000000E-01  1.51708891E-01  5.95237919E-01
   6.70000000E-01  1.57721992E-01  6.07367316E-01
   6.80000000E-01  1.63855925E-01  6.19403035E-01
   6.90000000E-01  1.70109715E-01  6.31337394E-01
   7.00000000E-01  1.76482310E-01  6.43162781E-01
   7.10000000E-01  1.82972582E-01  6.54871658E-01
   7.20000000E-01  1.89579330E-01  6.66456561E-01
   7.30000000E-01  1.96301276E-01  6.77910106E-01
   7.40000000E-01  2.03137070E-01  6.89224986E-01
   7.50000000E-01  2.10085289E-01  7.00393979E-01
   7.60000000E-01  2.17144439E-01  7.11409947E-01
   7.70000000E-01  2.24312954E-01  7.22265839E-01
   7.80000000E-01  2.31589199E-01  7.32954694E-01
   7.90000000E-01  2.38971469E-01  7.43469643E-01
   8.00000000E-01  2.46457990E-01  7.53803909E-01
   8.10000000E-01  2.54046922E-01  7.63950812E-01
   8.20000000E-01  2.61736359E-01  7.73903771E-01
   8.30000000E-01  2.69524330E-01  7.83656305E-01
   8.40000000E-01  2.77408796E-01  7.93202032E-01
   8.50000000E-01  2.85387660E-01  8.02534678E-01
   8.60000000E-01  2.93458759E-01  8.11648074E-01
   8.70000000E-01  3.01619870E-01  8.20536159E-01
   8.80000000E-01  3.09868711E-01  8.29192980E-01
   8.90000000E-01  3.18202940E-01  8.37612698E-01
   9.00000000E-01  3.26620156E-01  8.45789588E-01
   9.10000000E-01  3.35117903E-01  8.53718037E-01
   9.20000000E-01  3.43693670E-01  8.61392551E-01
   9.30000000E-01  3.52344890E-01  8.68807756E-01
   9.40000000E-01  3.61068943E-01  8.75958396E-01
   9.50000000E-01  3.69863159E-01  8.82839337E-01
   9.60000000E-01  3.78724814E-01  8.89445570E-01
   9.70000000E-01  3.87651138E-01  8.95772207E-01
   9.80000000E-01  3.96639311E-01  9.01814491E-01
   9.90000000E-01  4.05686465E-01  9.07567790E-01
   1.00000000E+00  4.14789688E-01  9.13027600E-01
   1.01000000E+00  4.23946024E-01  9.18189549E-01
   1.02000000E+00  4.33152472E-01  9.23049397E-01
   1.03000000E+00  4.42405991E-01  9.27603034E-01
   1.04000000E+00  4.51703499E-01  9.31846487E-01
   1.05000000E+00  4.61041874E-01  9.35775915E-01
   1.06000000E+00  4.70417958E-01  9.39387616E-01
   1.07000000E+00  4.79828555E-01  9.42678022E-01
   1.08000000E+00  4.89270436E-01  9.45643705E-01
   1.09000000E+00  4.98740336E-01  9.48281376E-01
   1.10000000E+00  5.08234960E-01  9.50587884E-01
   1.11000000E+00  5.17750980E-01  9.52560221E-01
   1.12000000E+00  5.27285040E-01  9.54195519E-01
   1.13000000E+00  5.36833758E-01  9.55491051E-01
   1.14000000E+00  5.46393720E-01  9.56444236E-01
   1.15000000E+00  5.55961493E-01  9.57052633E-01
   1.16000000E+00  5.65533616E-01  9.57313948E-01
   1.17000000E+00  5.75106608E-01  9.57226029E-01
   1.18000000E+00  5.84676966E-01  9.56786869E-01
   1.19000000E+00  5.94241168E-01  9.55994610E-01
   1.20000000E+00  6.03795675E-01  9.54847535E-01
   1.21000000E+00  6.13336931E-01  9.53344076E-01
   1.22000000E+00  6.22861364E-01  9.51482811E-01
   1.23000000E+00  6.32365390E-01  9.49262465E-01
   1.24000000E+00  6.41845413E-01  9.46681909E-01
   1.25000000E+00  6.51297824E-01  9.43740161E-01
   1.26000000E+00  6.60719009E-01  9.40436387E-01
   1.27000000E+00  6.70105343E-01  9.36769898E-01
   1.28000000E+00  6.79453196E-01  9.32740155E-01
   1.29000000E+00  6.88758934E-01  9.28346765E-01
   1.30000000E+00  6.98018919E-01  9.23589480E-01
   1.31000000E+00  7.07229510E-01  9.18468201E-01
   1.32000000E+00  7.16387069E-01  9.12982976E-01
   1.33000000E+00  7.25487957E-01  9.07133996E-01
   1.34000000E+00  7.34528538E-01  9.00921601E-01
   1.35000000E+00  7.43505179E-01  8.94346277E-01
   1.36000000E+00  7.52414256E-01  8.87408653E-01
   1.37000000E+00  7.61252147E-01  8.80109503E-01
   1.38000000E+00  7.70015244E-01  8.72449748E-01
   1.39000000E+00  7.78699944E-01  8.64430450E-01
   1.40000000E+00  7.87302658E-01  8.56052815E-01
   1.41000000E+00  7.95819810E-01  8.47318192E-01
   1.42000000E+00  8.04247837E-01  8.38228072E-01
   1.43000000E+00  8.12583192E-01  8.28784086E-01
   1.44000000E+00  8.20822345E-01  8.18988007E-01
   1.45000000E+00  8.28961785E-01  8.08841745E-01
   1.46000000E+00  8.36998020E-01  7.98347352E-01
   1.47000000E+00  8.44927579E-01  7.87507016E-01
   1.48000000E+00  8.52747015E-01  7.76323062E-01
   1.49000000E+00  8.60452903E-01  7.64797950E-01
   1.50000000E+00  8.68041845E-01  7.52934277E-01
   1.51000000E+00  8.75510469E-01  7.40734771E-01
   1.52000000E+00  8.82855431E-01  7.28202296E-01
   1.53000000E+00  8.90073415E-01  7.15339844E-01
   1.54000000E+00  8.97161138E-01  7.02150540E-01
   1.55000000E+00  9.04115347E-01  6.88637636E-01
   1.56000000E+00  9.10932823E-01  6.74804513E-01
   1.57000000E+00  9.17610382E-01  6.60654677E-01
   1.58000000E+00  9.24144873E-01  6.46191761E-01
   1.59000000E+00  9.30533186E-01  6.31419521E-01
   1.60000000E+00  9.36772245E-01  6.16341834E-01
   1.61000000E+00  9.42859018E-01  6.00962699E-01
   1.62000000E+00  9.48790508E-01  5.85286233E-01
   1.63000000E+00  9.54563765E-01  5.69316671E-01
   1.64000000E+00  9.60175879E-01  5.53058366E-01
   1.65000000E+00  9.65623985E-01  5.36515782E-01
   1.66000000E+00  9.70905262E-01  5.19693499E-01
   1.67000000E+00  9.76016938E-01  5.02596205E-01
   1.68000000E+00  9.80956286E-01  4.85228700E-01
   1.69000000E+00  9.85720628E-01  4.67595889E-01
   1.70000000E+00  9.90307336E-01  4.49702785E-01
   1.71000000E+00  9.94713833E-01  4.31554504E-01
   1.72000000E+00  9.98937593E-01  4.13156264E-01
   1.73000000E+00  1.00297614E+00  3.94513382E-01
   1.74000000E+00  1.00682706E+00  3.75631275E-01
   1.75000000E+00  1.01048799E+00  3.56515457E-01
   1.76000000E+00  1.01395661E+00  3.37171532E-01
   1.77000000E+00  1.01723068E+00  3.17605201E-01
   1.78000000E+00  1.02030799E+00  2.97822253E-01
   1.79000000E+00  1.02318642E+00  2.77828566E-01
   1.80000000E+00  1.02586388E+00  2.57630102E-01
   1.81000000E+00  1.02833836E+00  2.37232909E-01
   1.82000000E+00  1.03060790E+00  2.16643117E-01
   1.83000000E+00  1.03267060E+00  1.95866933E-01
   1.84000000E+00  1.03452464E+00  1.74910646E-01
   1.85000000E+00  1.03616824E+00  1.53780615E-01
   1.86000000E+00  1.03759969E+00  1.32483275E-01
   1.87000000E+00  1.03881736E+00  1.11025132E-01
   1.88000000E+00  1.03981968E+00  8.94127587E-02
   1.89000000E+00  1.04060513E+00  6.76527949E-02
   1.90000000E+00  1.04117227E+00  4.57519442E-02
   1.91000000E+00  1.04151972E+00  2.37169714E-02
   1.92000000E+00  1.04164618E+00  1.55470076E-03
   1.93000000E+00  1.04155041E+00 -2.07279870E-02
   1.94000000E+00  1.04123124E+00 -4.31241568E-02
   1.95000000E+00  1.04068757E+00 -6.56268214E-02
   1.96000000E+00  1.03991838E+00 -8.82289441E-02
   1.97000000E+00  1.03892269E+00 -1.10923441E-01
   1.98000000E+00  1.03769962E+00 -1.33703184E-01
   1.99000000E+00  1.03624836E+00 -1.56561002E-01
   2.00000000E+00  1.03456817E+00 -1.79489685E-01
   2.01000000E+00  1.03265836E+00 -2.02481985E-01
   2.02000000E+00  1.03051834E+00 -2.25530620E-01
   2.03000000E+00  1.02814758E+00 -2.48628275E-01
   2.04000000E+00  1.02554563E+00 -2.71767605E-01
   2.05000000E+00  1.02271212E+00 -2.94941238E-01
   2.06000000E+00  1.01964672E+00 -3.18141779E-01
   2.07000000E+00  1.01634922E+00 -3.41361807E-01
   2.08000000E+00  1.01281944E+00 -3.64593885E-01
   2.09000000E+00  1.00905732E+00 -3.87830557E-01
   2.10000000E+00  1.00506284E+00 -4.11064353E-01
   2.11000000E+00  1.00083607E+00 -4.34287789E-01
   2.12000000E+00  9.96377146E-01 -4.57493375E-01
   2.13000000E+00  9.91686287E-01 -4.80673611E-01
   2.14000000E+00  9.86763783E-01 -5.03820993E-01
   2.15000000E+00  9.81610001E-01 -5.26928017E-01
   2.16000000E+00  9.76225382E-01 -5.49987176E-01
   2.17000000E+00  9.70610442E-01 -5.72990970E-01
   2.18000000E+00  9.64765772E-01 -5.95931903E-01
   2.19000000E+00  9.58692039E-01 -6.18802486E-01
   2.20000000E+00  9.52389982E-01 -6.41595242E-01
   2.21000000E+00  9.45860418E-01 -6.64302708E-01
   2.22000000E+00  9.39104237E-01 -6.86917434E-01
   2.23000000E+00  9.32122403E-01 -7.09431992E-01
   2.24000000E+00  9.24915956E-01 -7.31838972E-01
   2.25000000E+00  9.17486007E-01 -7.54130987E-01
   2.26000000E+00  9.09833744E-01 -7.76300679E-01
   2.27000000E+00  9.01960426E-01 -7.98340713E-01
   2.28000000E+00  8.93867386E-01 -8.20243790E-01
   2.29000000E+00  8.85556031E-01 -8.42002640E-01
   2.30000000E+00  8.77027838E-01 -8.63610030E-01
   2.31000000E+00  8.68284359E-01 -8.85058767E-01
   2.32000000E+00  8.59327216E-01 -9.06341694E-01
   2.33000000E+00  8.50158102E-01 -9.27451700E-01
   2.34000000E+00  8.40778781E-01 -9.48381719E-01
   2.35000000E+00  8.31191090E-01 -9.69124730E-01
   2.36000000E+00  8.21396933E-01 -9.89673765E-01
   2.37000000E+00  8.11398285E-01 -1.01002191E+00
   2.38000000E+00  8.01197188E-01 -1.03016229E+00
   2.39000000E+00  7.90795754E-01 -1.05008811E+00
   2.40000000E+00  7.80196163E-01 -1.06979262E+00
   2.41000000E+00  7.69400662E-01 -1.08926913E+00
   2.42000000E+00  7.58411563E-01 -1.10851103E+00
   2.43000000E+00  7.47231245E-01 -1.12751174E+00
   2.44000000E+00  7.35862154E-01 -1.14626479E+00
   2.45000000E+00  7.24306796E-01 -1.16476376E+00
   2.46000000E+00  7.12567746E-01 -1.18300230E+00
   2.47000000E+00  7.00647639E-01 -1.20097413E+00
   2.48000000E+00  6.88549173E-01 -1.21867306E+00
   2.49000000E+00  6.76275108E-01 -1.23609298E+00
   2.50000000E+00  6.63828264E-01 -1.25322784E+00
   2.51000000E+00  6.51211521E-01 -1.27007169E+00
   2.52000000E+00  6.38427820E-01 -1.28661865E+00
   2.53000000E+00  6.25480157E-01 -1.30286296E+00
   2.54000000E+00  6.12371589E-01 -1.31879890E+00
   2.55000000E+00  5.99105226E-01 -1.33442087E+00
   2.56000000E+00  5.85684236E-01 -1.34972336E+00
   2.57000000E+00  5.72111842E-01 -1.36470095E+00
   2.58000000E+00  5.58391318E-01 -1.37934832E+00
   2.59000000E+00  5.44525994E-01 -1.39366023E+00
   2.60000000E+00  5.30519249E-01 -1.40763157E+00
   2.61000000E+00  5.16374514E-01 -1.42125730E+00
   2.62000000E+00  5.02095271E-01 -1.43453250E+00
   2.63000000E+00  4.87685049E-01 -1.44745235E+00
   2.64000000E+00  4.73147424E-01 -1.46001213E+00
   2.65000000E+00  4.58486022E-01 -1.47220725E+00
   2.66000000E+00  4.43704510E-01 -1.48403320E+00
   2.67000000E+00  4.28806603E-01 -1.49548559E+00
   2.68000000E+00  4.13796058E-01 -1.50656015E+00
   2.69000000E+00  3.98676673E-01 -1.51725272E+00
   2.70000000E+00  3.83452290E-01 -1.52755924E+00
   2.71000000E+00  3.68126788E-01 -1.53747580E+00
   2.72000000E+00  3.52704087E-01 -1.54699857E+00
   2.73000000E+00  3.37188142E-01 -1.55612386E+00
   2.74000000E+00  3.21582947E-01 -1.56484809E+00
   2.75000000E+00  3.05892529E-01 -1.57316781E+00
   2.76000000E+00  2.90120950E-01 -1.58107969E+00
   2.77000000E+00  2.74272305E-01 -1.58858052E+00
   2.78000000E+00  2.58350720E-01 -1.59566721E+00
   2.79000000E+00  2.42360351E-01 -1.60233681E+00
   2.80000000E+00  2.26305384E-01 -1.60858648E+00
   2.81000000E+00  2.10190030E-01 -1.61441352E+00
   2.82000000E+00  1.94018531E-01 -1.61981535E+00
   2.83000000E+00  1.77795149E-01 -1.62478953E+00
   2.84000000E+00  1.61524173E-01 -1.62933373E+00
   2.85000000E+00  1.45209915E-01 -1.63344578E+00
   2.86000000E+00  1.28856705E-01 -1.63712362E+00
   2.87000000E+00  1.12468896E-01 -1.64036533E+00
   2.88000000E+00  9.60508582E-02 -1.64316911E+00
   2.89000000E+00  7.96069791E-02 -1.64553332E+00
   2.90000000E+00  6.31416621E-02 -1.64745643E+00
   2.91000000E+00  4.66593254E-02 -1.64893706E+00
   2.92000000E+00  3.01644001E-02 -1.64997395E+00
   2.93000000E+00  1.36613292E-02 -1.65056600E+00
   2.94000000E+00 -2.84543379E-03 -1.65071222E+00
   2.95000000E+00 -1.93514263E-02 -1.65041177E+00
   2.96000000E+00 -3.58521780E-02 -1.64966395E+00
   2.97000000E+00 -5.23432122E-02 -1.64846819E+00
   2.98000000E+00 -6.88200472E-02 -1.64682406E+00
   2.99000000E+00 -8.52781978E-02 -1.64473126E+00
   3.00000000E+00 -1.01713176E-01 -1.64218965E+00
   3.01000000E+00 -1.18120495E-01 -1.63919921E+00
   3.02000000E+00 -1.34495665E-01 -1.63576005E+00
   3.03000000E+00 -1.50834201E-01 -1.63187244E+00
   3.04000000E+00 -1.67131620E-01 -1.62753678E+00
   3.05000000E+00 -1.83383445E-01 -1.62275359E+00
   3.06000000E+00 -1.99585202E-01 -1.61752356E+00
   3.07000000E+00 -2.15732429E-01 -1.61184750E+00
   3.08000000E+00 -2.31820669E-01 -1.60572635E+00
   3.09000000E+00 -2.47845476E-01 -1.59916120E+00
   3.10000000E+00 -2.63802417E-01 -1.59215327E+00
   3.11000000E+00 -2.79687070E-01 -1.58470393E+00
   3.12000000E+00 -2.95495029E-01 -1.57681467E+00
   3.13000000E+00 -3.11221903E-01 -1.56848712E+00
   3.14000000E+00 -3.26863316E-01 -1.55972306E+00
   3.15000000E+00 -3.42414915E-01 -1.55052438E+00
   3.16000000E+00 -3.57872362E-01 -1.54089311E+00
   3.17000000E+00 -3.73231343E-01 -1.53083145E+00
   3.18000000E+00 -3.88487564E-01 -1.52034168E+00
   3.19000000E+00 -4.03636757E-01 -1.50942625E+00
   3.20000000E+00 -4.18674678E-01 -1.49808772E+00
   3.21000000E+00 -4.33597110E-01 -1.48632880E+00
   3.22000000E+00 -4.48399863E-01 -1.47415231E+00
   3.23000000E+00 -4.63078775E-01 -1.46156123E+00
   3.24000000E+00 -4.77629715E-01 -1.44855864E+00
   3.25000000E+00 -4.92048586E-01 -1.43514775E+00
   3.26000000E+00 -5.06331321E-01 -1.42133192E+00
   3.27000000E+00 -5.20473886E-01 -1.40711461E+00
   3.28000000E+00 -5.34472287E-01 -1.39249942E+00
   3.29000000E+00 -5.48322561E-01 -1.37749007E+00
   3.30000000E+00 -5.62020787E-01 -1.36209040E+00
   3.31000000E+00 -5.75563081E-01 -1.34630438E+00
   3.32000000E+00 -5.88945600E-01 -1.33013609E+00
   3.33000000E+00 -6.02164542E-01 -1.31358973E+00
   3.34000000E+00 -6.15216149E-01 -1.29666964E+00
   3.35000000E+00 -6.28096704E-01 -1.27938024E+00
   3.36000000E+00 -6.40802538E-01 -1.26172610E+00
   3.37000000E+00 -6.53330026E-01 -1.24371189E+00
   3.38000000E+00 -6.65675591E-01 -1.22534237E+00
   3.39000000E+00 -6.77835705E-01 -1.20662246E+00
   3.40000000E+00 -6.89806889E-01 -1.18755715E+00
   3.41000000E+00 -7.01585714E-01 -1.16815155E+00
   3.42000000E+00 -7.13168803E-01 -1.14841089E+00
   3.43000000E+00 -7.24552833E-01 -1.12834048E+00
   3.44000000E+00 -7.35734532E-01 -1.10794576E+00
   3.45000000E+00 -7.46710685E-01 -1.08723226E+00
   3.46000000E+00 -7.57478133E-01 -1.06620560E+00
   3.47000000E+00 -7.68033773E-01 -1.04487151E+00
   3.48000000E+00 -7.78374558E-01 -1.02323583E+00
   3.49000000E+00 -7.88497504E-01 -1.00130447E+00
   3.50000000E+00 -7.98399682E-01 -9.79083456E-01
   3.51000000E+00 -8.08078228E-01 -9.56578886E-01
   3.52000000E+00 -8.17530335E-01 -9.33796962E-01
   3.53000000E+00 -8.26753263E-01 -9.10743968E-01
   3.54000000E+00 -8.35744332E-01 -8.87426276E-01
   3.55000000E+00 -8.44500928E-01 -8.63850344E-01
   3.56000000E+00 -8.53020500E-01 -8.40022709E-01
   3.57000000E+00 -8.61300565E-01 -8.15949992E-01
   3.58000000E+00 -8.69338705E-01 -7.91638888E-01
   3.59000000E+00 -8.77132571E-01 -7.67096174E-01
   3.60000000E+00 -8.84679880E-01 -7.42328697E-01
   3.61000000E+00 -8.91978419E-01 -7.17343378E-01
   3.62000000E+00 -8.99026044E-01 -6.92147209E-01
   3.63000000E+00 -9.05820684E-01 -6.66747249E-01
   3.64000000E+00 -9.12360334E-01 -6.41150625E-01
   3.65000000E+00 -9.18643064E-01 -6.15364524E-01
   3.66000000E+00 -9.24667017E-01 -5.89396200E-01
   3.67000000E+00 -9.30430405E-01 -5.63252963E-01
   3.68000000E+00 -9.35931518E-01 -5.36942182E-01
   3.69000000E+00 -9.41168715E-01 -5.10471280E-01
   3.70000000E+00 -9.46140434E-01 -4.83847735E-01
   3.71000000E+00 -9.50845186E-01 -4.57079073E-01
   3.72000000E+00 -9.55281557E-01 -4.30172872E-01
   3.73000000E+00 -9.59448211E-01 -4.03136752E-01
   3.74000000E+00 -9.63343885E-01 -3.75978381E-01
   3.75000000E+00 -9.66967396E-01 -3.48705466E-01
   3.76000000E+00 -9.70317638E-01 -3.21325755E-01
   3.77000000E+00 -9.73393581E-01 -2.93847031E-01
   3.78000000E+00 -9.76194275E-01 -2.66277114E-01
   3.79000000E+00 -9.78718846E-01 -2.38623855E-01
   3.80000000E+00 -9.80966501E-01 -2.10895134E-01
   3.81000000E+00 -9.82936523E-01 -1.83098861E-01
   3.82000000E+00 -9.84628279E-01 -1.55242969E-01
   3.83000000E+00 -9.86041211E-01 -1.27335415E-01
   3.84000000E+00 -9.87174842E-01 -9.93841759E-02
   3.85000000E+00 -9.88028775E-01 -7.13972477E-02
   3.86000000E+00 -9.88602694E-01 -4.33826407E-02
   3.87000000E+00 -9.88896362E-01 -1.53483791E-02
   3.88000000E+00 -9.88909623E-01  1.26975023E-02
   3.89000000E+00 -9.88642401E-01  4.07469601E-02
   3.90000000E+00 -9.88094699E-01  6.87919450E-02
